R_val;S_val;RR_l_0/RR_l_1;signal_mean;signal_std;seq_size;label
0.48514019955901116;0.4218324316026653;0.39200868787445214;0.38300336683998;0.1873369485909532;0.5803921568627451;0.0
0.36645419540213237;0.4531380548312492;0.4540683193803484;0.41425704099362165;0.16262228154082062;0.4;0.0
0.5311974793587234;0.42610835353167326;0.46348607964155436;0.4724396171924683;0.17862862688437453;0.5843137254901961;0.0
0.3096241252767554;0.5016890201141005;0.43740404907121827;0.4064911056684906;0.08178267285249317;0.35294117647058826;0.0
0.551440550230505;0.5140029650903482;0.43434553449835234;0.3796945203899601;0.3127114474186465;0.47843137254901963;0.0
0.301736803970593;0.5273800484195407;0.4658809666880861;0.42143903421876727;0.0633655018017756;0.47843137254901963;0.0
0.4568868370755738;0.39081236027616106;0.43136754713480674;0.34810988818190036;0.17667562708429976;0.5372549019607843;0.0
0.313846774640407;0.4829131700960308;0.45323931564946285;0.30428473579457777;0.0995143759389898;0.3411764705882353;0.0
0.6211248725237418;0.1861857231201089;0.4454674056724102;0.42292467204803474;0.4412586077514668;0.19215686274509805;0.0
0.7518195285780508;0.25671338835476887;0.4720986751809343;0.6334671265122214;0.444523901360787;0.18823529411764706;0.0
0.6338842787280412;0.4738640422624858;0.42172255187748886;0.4367389114228101;0.322624899603305;0.4666666666666667;0.0
0.5349549057295954;0.4695381877013584;0.4531467929116408;0.4887181879753087;0.1846591679346675;0.5607843137254902;0.0
0.5727308061208631;0.45568503769628793;0.4130337925279508;0.4511963861687374;0.19955508595109256;0.5372549019607843;0.0
0.6195890478842265;0.5689891196479582;0.4763688920482358;0.5954142777682131;0.19143350202327442;0.5764705882352941;0.0
0.3105917345808605;0.5175685921158959;0.4294408583905379;0.4075589590424541;0.07716006362721299;0.4627450980392157;0.0
0.44991350578823874;0.5188872441397705;0.4266332880637866;0.7196052274725744;0.2365047586257132;0.2784313725490196;0.0
0.3895422419112828;0.47133912941495687;0.45909561401245313;0.45615229069785357;0.18318076776433004;0.36470588235294116;0.0
0.7066051827422531;0.5177079401599649;0.46965747547598624;0.4929327495059039;0.3499682233788137;0.42745098039215684;0.0
0.6693640398741723;0.4673871866810944;0.42638253797728126;0.420149928926062;0.34365254336247975;0.5333333333333333;0.0
0.6203780814797198;0.49762512156076516;0.4605567279670385;0.45478421609870257;0.22196256465157183;0.4588235294117647;0.0
0.5527606877202733;0.48507819499853955;0.4348344079565527;0.4597163714979951;0.19982284183838694;0.5607843137254902;0.0
0.33796623109176593;0.5628016219272037;0.4454674056724102;0.4742867294196236;0.07237376739179592;0.43529411764705883;0.0
0.6793616006774497;0.5323357160079779;0.40128462977546775;0.610983103504517;0.35445103612070766;0.37254901960784315;0.0
0.3894652405429717;0.47204762618777196;0.7589161974933948;0.4452574201088288;0.18578194647584517;0.3411764705882353;0.0
0.4234473866475418;0.45245865768428184;0.42121670912747183;0.5761789635074399;0.2248971169703665;0.30980392156862746;0.0
0.6922227402713373;0.17559807429376348;0.4115164305094966;0.4892518404974311;0.4574621393099759;0.17647058823529413;0.0
0.2815158718735704;0.49736628991362564;0.43774203407845375;0.35795445689070315;0.067166010731933;0.4666666666666667;0.0
0.6240936341981025;0.5354751092191102;0.41981127103225385;0.5192000427282393;0.2011170112548553;0.592156862745098;0.0
0.39531795681480536;0.4638311473628845;0.4502456910657091;0.4473864464150122;0.16518128952033814;0.4666666666666667;0.0
0.28658134121333123;0.44278752155334755;0.4536328300786805;0.27635784286974585;0.0884808710252736;0.43529411764705883;0.0
0.9493010636968425;0.33634810633962275;0.42834169253713517;0.7433513716575904;0.8169757892534356;0.43529411764705883;0.0
0.38713873099942075;0.4505794291205074;0.44089245157244306;0.41423822295929474;0.1953353396627833;0.3764705882352941;0.0
0.47468221622240414;0.4051370768326106;0.4454674056724102;0.35735434931010934;0.17273232787982457;0.49411764705882355;0.0
0.5316845580677524;0.41226437754768686;0.4419805487637867;0.4210503067099301;0.17554271085189893;0.5450980392156862;0.0
0.5077199317453949;0.5807316693082127;0.43091698774544723;0.9066709789286436;0.2156937023245072;0.3176470588235294;0.0
0.4551638138661302;0.39280672949610784;0.44160471987543193;0.34903185751037724;0.17845373883875568;0.4745098039215686;0.0
0.9337977988921738;0.38621674352105734;0.40097992097617857;0.6224864741296936;0.7082967034891607;0.5176470588235295;0.0
0.6864327473074588;0.2007129877721005;0.4396031463260888;0.4793632687174651;0.4429539613621381;0.1803921568627451;0.0
0.3662418383028233;0.43744187925688793;0.45474896722773905;0.3697783809065481;0.1638314717715853;0.32941176470588235;0.0
0.41963476413862966;0.4899067021616189;0.4498556269519705;0.4613178812675044;0.21428839358376559;0.40784313725490196;0.0
0.39377125804199486;0.49117497289068224;0.4546173138723444;0.4552312648790897;0.2316714891091234;0.34509803921568627;0.0
0.401769170913126;0.39945583172147425;0.5034076926270832;0.35135222171823877;0.15413117276057994;0.49019607843137253;0.0
0.6168663751662699;0.5242791241660292;0.42049701103646075;0.5316561120581083;0.3139156309800626;0.4823529411764706;0.0
0.2856289133572734;0.49911011954585977;0.43306224167057644;0.35889278985760387;0.07407433775473368;0.41568627450980394;0.0
0.3199370284425426;0.47137092625309285;0.4154642183191376;0.3211562659605869;0.09473504276907171;0.4745098039215686;0.0
0.3062573587144384;0.5346040472725649;0.44930709929202545;0.4242039316968789;0.06347164776990159;0.4666666666666667;0.0
0.5992848809281125;0.4224561037910099;0.14551054010806802;0.2985912221227978;0.35988207031447406;0.36470588235294116;0.0
0.49624083009777054;0.4673264535234571;0.46906747377346;0.43398900730758744;0.17147767467274133;0.5333333333333333;0.0
0.27202798103567627;0.45657360605428404;0.4500423597723772;0.33517588804114634;0.0751409783155095;0.37254901960784315;0.0
0.3633826763388635;0.4703012992020668;0.4454674056724102;0.3687644234340896;0.11980952702735223;0.43529411764705883;0.0
0.5902919016507681;0.5072947315157396;0.4303780833777818;0.45780805061314944;0.2069900237648572;0.5568627450980392;0.0
0.5135625067925323;0.3940860302708859;0.43421621041493286;0.3210773621617388;0.20164340170076758;0.5254901960784314;0.0
0.5327434737995203;0.4579741341771534;0.4454674056724102;0.5138134989554117;0.1790211589732564;0.5098039215686274;0.0
0.8421528177386184;0.3783304228311299;0.488471974212101;0.308760457151895;0.623593110185754;0.7843137254901961;0.0
0.3690093520797448;0.4508126460492712;0.45010818645007467;0.401137591240379;0.2103699816400961;0.20392156862745098;0.0
0.5102201566735568;0.4822346627569755;0.42296501515745594;0.45527068946919824;0.18556751640127067;0.5568627450980392;0.0
0.6219494463758477;0.5718240463852833;0.41652202300146457;0.6067787257363475;0.2772315260663576;0.4666666666666667;0.0
0.24797396650434128;0.458341256345003;0.44942488130489694;0.25852086257054097;0.08166665479978805;0.4666666666666667;0.0
0.6194653111915107;0.5405578671272108;0.4454674056724102;0.5756773942056589;0.31083652373666215;0.4588235294117647;0.0
0.7031264611758171;0.2647040551782706;0.49639386841678085;0.6599297989335808;0.48555113402133954;0.21176470588235294;0.0
0.39310228209697623;0.43832927054536225;0.46516415462188687;0.617228301640147;0.21991124085785949;0.3254901960784314;0.0
0.3010956315689576;0.49741817848217174;0.4115164305094966;0.36277708282218046;0.07935485596255644;0.43137254901960786;0.0
0.6308900243520591;0.4793483711242017;0.14443542589457573;0.43421707788069214;0.33526114779859634;0.5019607843137255;0.0
0.5737525318394713;0.5450086451844058;0.4126673110234936;0.5267917483802746;0.18657152522936774;0.5490196078431373;0.0
0.682293291860759;0.15058978964161662;0.4513316650187316;0.3374647215636634;0.4836256236312185;0.1803921568627451;0.0
0.5794671762372158;0.7206167071975479;0.4706653950511352;0.8945775029468707;0.16758833604824427;0.3176470588235294;0.0
0.35298586731502757;0.39597434363960665;0.4502105566142878;0.4479547431927393;0.22177025478753204;0.26666666666666666;0.0
0.6034289332154246;0.5285243858209836;0.4454674056724102;0.5145129428806633;0.21371570229165945;0.47058823529411764;0.0
0.3523200985869657;0.5500184635297621;0.43787836416540604;0.4498053939808054;0.08705225835645077;0.49019607843137253;0.0
0.5878886622292198;0.4819000651498727;0.4730008184569683;0.45739028521843617;0.19737454347983766;0.5333333333333333;0.0
0.3395115732694414;0.5018678224719088;0.4454674056724102;0.36602196610368043;0.10023939149972805;0.4117647058823529;0.0
0.36096685765189196;0.4722750664202746;0.4779528711160612;0.4382663464436545;0.14596848449269045;0.36470588235294116;0.0
0.8592434316287376;0.27403567854973104;0.4166697035252959;0.6826860942637654;0.6621122325772739;0.8;0.0
0.38275071980903647;0.46503139148258127;0.44107918439284993;0.42930169856747535;0.17821081935029662;0.3843137254901961;0.0
0.403335200007104;0.4791443183701873;0.4454674056724102;0.49917668191425535;0.18612449054276692;0.3764705882352941;0.0
0.5113748340186606;0.6525238485857624;0.4373019812661398;0.3602487363725907;0.2641387710696206;0.4196078431372549;0.0
0.37806842390857925;0.4271056145038255;0.6174856798311728;0.36587675537386194;0.1958261715135351;0.38823529411764707;0.0
0.31284683941644326;0.49160690821048303;0.5329343247361878;0.3788642271627416;0.08084993661698571;0.49411764705882355;0.0
0.34338917003528296;0.4986786758324942;0.3923441151233805;0.36425531227021574;0.09410551951705913;0.47843137254901963;0.0
0.6110031041040894;0.494994655882464;0.41995622094547513;0.5133884361997836;0.20744503415055607;0.5529411764705883;0.0
0.5472118307977651;0.5189082496318175;0.3972726305848259;0.49481405491175046;0.18254152502200086;0.5490196078431373;0.0
0.5561245139932905;0.5148439915114263;0.4695072265952187;0.45283827033172835;0.18771662668492142;0.5843137254901961;0.0
0.5571132115108542;0.5064799287799511;0.441627712052795;0.4895023415005763;0.19554898689645345;0.47843137254901963;0.0
0.39103433421698813;0.4445066887142588;0.4276724117939175;0.4076269582097472;0.2024586248779699;0.34901960784313724;0.0
0.29335268519425545;0.4578070019772474;0.4100673035208354;0.3417116309121828;0.0847775765674822;0.5176470588235295;0.0
0.29101594053337215;0.5003043596209704;0.49673112975945877;0.4084757122279168;0.0986410229944198;0.3843137254901961;0.0
0.30900761773856783;0.4855676801560471;0.4826828976779117;0.3906030003714357;0.07789482348248762;0.44313725490196076;0.0
0.5871308212714678;0.4968276410382662;0.4206570776687425;0.4860904243196863;0.21568317184307897;0.49019607843137253;0.0
0.9819066094236477;0.2563779874801884;0.4661806152901511;0.522924045384041;0.718682254321828;0.796078431372549;0.0
0.349733859485099;0.5475947599428089;0.43740404907121827;0.4233252204057891;0.08745895480546619;0.4627450980392157;0.0
0.7059832239476043;0.5192145852945373;0.4259198745180053;0.5227521411463917;0.3282723262105;0.5843137254901961;0.0
0.3847367941485389;0.5305706742190688;0.411114643821178;0.4208125674937207;0.10034467806682157;0.49411764705882355;0.0
0.7731372110762683;0.3055598889216842;0.4573035254539764;0.6372246567124924;0.46163255263034886;0.1803921568627451;0.0
0.1475871170309717;0.41668805750605153;0.4497112775677744;0.17884880727870087;0.04731797315631159;0.396078431372549;0.0
0.6037268775357107;0.6898933655208459;0.47597740362286645;0.5089531776532176;0.25330893100203;0.4745098039215686;0.0
0.7625330309920413;0.3512778165074844;0.1838727952005593;0.43965760924276376;0.5868488932733409;0.4666666666666667;0.0
0.24999530821588992;0.4238654154330935;0.4147498567154883;0.22829345960457506;0.09121497207368663;0.3843137254901961;0.0
0.6639098278049883;0.516099769676306;0.4130337925279508;0.5389264318743406;0.3596260626865954;0.48627450980392156;0.0
0.7411823733153599;0.4196147133490204;0.5642958187426079;0.9273086418646803;0.43342379800935615;0.18823529411764706;0.0
0.25877634607881533;0.4753785953121609;0.4415099300399234;0.3440984775512882;0.06307202234520749;0.4823529411764706;0.0
0.5726423954788166;0.5046451231144669;0.4529682025107284;0.5443559071666394;0.1814741948607933;0.5019607843137255;0.0
0.8111004322626568;0.21301497628051988;0.4513854655631933;0.40936239837753996;0.674130972490482;0.788235294117647;0.0
0.9328309268070296;0.43080677725536715;0.4691396452355427;0.5118376411632057;0.8517352929041188;0.8;0.0
0.41540986703885935;0.4703196817795381;0.41840159330477267;0.4614231771316099;0.20558193636739408;0.3686274509803922;0.0
0.27369734489875486;0.4975885103787233;0.4415340609889019;0.400992716913973;0.06600834083292931;0.49411764705882355;0.0
0.5616451118905946;0.4633814820587735;0.43394832481356455;0.4397551239491308;0.18691589049646615;0.5490196078431373;0.0
0.4063558494235391;0.464320008545899;0.4363819334457149;0.4296515029603595;0.19499166485482924;0.35294117647058826;0.0
0.7003977437336081;0.7538467549604101;0.6015986417719239;0.541655625770967;0.3313942726387005;0.4470588235294118;0.0
0.41207965230976645;0.5069961815046241;0.4683421761722456;0.5040701517195803;0.19877274064820252;0.3333333333333333;0.0
0.4166357038567501;0.4861919453516875;0.4196646645485958;0.5140690781643562;0.20515709769435306;0.3764705882352941;0.0
0.37753085583397683;0.43326303066317756;0.4454674056724102;0.5461170566461965;0.22922454909886902;0.3215686274509804;0.0
0.3517199141572137;0.502145492403353;0.43247944873089283;0.4082719731666645;0.12505750769700605;0.43137254901960786;0.0
0.3503173802792839;0.504043709628136;0.403727677383887;0.3656241392303312;0.105198792341835;0.5019607843137255;0.0
0.5968389582015636;0.5406246806181993;0.45430396085179875;0.5391387263067628;0.3122755259967409;0.27450980392156865;0.0
0.2840856595671637;0.5227729076352906;0.4701197061091754;0.38106903013663224;0.08021636115077926;0.4196078431372549;0.0
0.5941336342244742;0.7153399930873385;0.3907343184400766;0.3323744283221871;0.2995361873171062;0.5882352941176471;0.0
0.401229192406008;0.4540897577692685;0.4227537251056722;0.41734689055417723;0.1955476387157983;0.3686274509803922;0.0
0.40319027429232623;0.49659831568746576;0.686819576048225;0.48717161505904766;0.1770310604317179;0.3686274509803922;0.0
0.5743037502916233;0.5008859882819658;0.44917469606376287;0.4711930554478708;0.1989228234306271;0.5411764705882353;0.0
0.3765050785136823;0.4761754146821908;0.41913807799504843;0.4677011343659083;0.17307354937540323;0.3803921568627451;0.0
0.2801155360834888;0.4589747590424428;0.4321211602635407;0.3126982134720322;0.08984923882538194;0.3843137254901961;0.0
0.6261746514143656;0.5524198473130458;0.4565257232969021;0.6125498556059876;0.19678465652763588;0.5529411764705883;0.0
0.3936969298725442;0.44965921629291056;0.4593897480054035;0.4388629895056076;0.20823516192578068;0.35294117647058826;0.0
0.35347585761279104;0.5272690234793497;0.44944931016682604;0.45795639887190015;0.09019891464412523;0.38823529411764707;0.0
0.5864702163639579;0.4862750854488226;0.802623991849502;0.4162801374854835;0.31226559187211284;0.43137254901960786;0.0
0.30240430170809135;0.5152445333958106;0.4415340609889019;0.40977804762666914;0.07723278368073956;0.47058823529411764;0.0
0.4540544626737423;0.45720105127324207;0.44169507509875305;0.46515525538446933;0.1548710369289979;0.5450980392156862;0.0
0.3981296263818343;0.5220611401976393;0.4535814752082009;0.3962876314022996;0.12517786707200673;0.44313725490196076;0.0
0.3556724699418469;0.35032223560237186;0.4312379528467772;0.4877915336540516;0.2260652515285106;0.28627450980392155;0.0
0.7603702988811345;0.5056372002788907;0.4281501297503872;0.48728075189304776;0.3795970890422784;0.4627450980392157;0.0
0.6317701946927319;0.48223243608162636;0.1033856104703256;0.45429647032482995;0.35784722453560475;0.3568627450980392;0.0
0.7504895265713901;0.26773958916896373;0.41181165638047834;0.5443898737261883;0.45789198429132644;0.17254901960784313;0.0
0.32299260779746347;0.5103418660046523;0.1847661352504514;0.34324448182078005;0.0976436093272739;0.4745098039215686;0.0
0.7059260953898617;0.701638741790181;0.4414357273718142;0.9476799531866159;0.25039284595022276;0.4196078431372549;0.0
0.3026774914767592;0.5395254674171802;0.4454674056724102;0.4018336367547286;0.06881750164714022;0.4627450980392157;0.0
0.37921279854208795;0.4761063565953249;0.666148744231349;0.42722509172628154;0.19073117165168904;0.3764705882352941;0.0
0.4894561250361613;0.4575335829831995;0.45941483330690447;0.43549419235131737;0.16601463374651618;0.49411764705882355;0.0
0.2809364893148593;0.5003307795395829;0.49184488154854716;0.3498697069861367;0.07307114230346962;0.43529411764705883;0.0
0.6738548251669103;0.20862894852265915;0.43965597749137086;0.47651506587188164;0.44155950582437475;0.1843137254901961;0.0
0.3762570492022735;0.4685064218929066;0.4454674056724102;0.4598975743589176;0.1818344332765081;0.38823529411764707;0.0
0.5338612678143866;0.5066528957172467;0.4382194446825747;0.49271190209155274;0.19100129245406589;0.5254901960784314;0.0
0.3446876722125847;0.5720248321008186;0.43366737162188534;0.45783739382502037;0.08250009654524151;0.4823529411764706;0.0
0.3664640273571048;0.4295160002677115;0.4411380866919044;0.35979797892741944;0.1948537078772545;0.403921568627451;0.0
0.5435889918194704;0.5130146609265072;0.41936636696334934;0.4921816958925593;0.17909591102909328;0.5411764705882353;0.0
0.36632436468743873;0.4491853129310592;0.4681810862391482;0.3846143377666825;0.16669257065396992;0.34901960784313724;0.0
0.5705411065679017;0.45751012625907767;0.43428124622566977;0.4329989136398534;0.21037081368483734;0.4745098039215686;0.0
0.3738815976323505;0.538994642918097;0.47897745907996137;0.439038549155054;0.0944433760205604;0.4196078431372549;0.0
0.4170878619570497;0.48399263431234135;0.4065035348478583;0.4905920091114439;0.2041142113012669;0.3764705882352941;0.0
0.41040738490867856;0.5269332713002576;0.11015950740502031;0.5163261495654768;0.18579940891125285;0.37254901960784315;0.0
0.5939026180162212;0.47198964765797125;0.4416728849189081;0.40227190233403126;0.20772602220535813;0.5372549019607843;0.0
0.2790242255103694;0.5120211723599905;0.47812910329749175;0.39119783068548736;0.06917124539029983;0.44313725490196076;0.0
0.6983127088499355;0.214236415706076;0.4809757650171088;0.5320037392316328;0.4292455302357426;0.1803921568627451;0.0
0.6107429360978717;0.5145955423389396;0.412480946849352;0.49168829524073937;0.2092927881964923;0.5176470588235295;0.0
0.32255716938477835;0.4932741032341577;0.42671541357661485;0.3637658954687716;0.0877425709027882;0.5019607843137255;0.0
0.5986417550618744;0.40993957826688016;0.5033581710143014;0.2475626386604504;0.3578876326519342;0.25882352941176473;0.0
0.6458432790302093;0.48197288732167426;0.4288204759151106;0.4100702734752343;0.3364421549850229;0.4;0.0
0.2959538598798665;0.49861836164894574;0.655114677303402;0.30736578805892084;0.0830329158602381;0.4549019607843137;0.0
0.5916923655974938;0.5197043378313049;0.6560106058146455;0.5431398087653945;0.3311621632450227;0.34901960784313724;0.0
0.37710522065109064;0.4552272841139014;0.4774920843721798;0.45802739582740015;0.17766079237898605;0.3568627450980392;0.0
0.38621310036738604;0.49951081902864986;0.4366308504930217;0.4953579100223673;0.16495320816444453;0.3607843137254902;0.0
0.48020489953168544;0.42863080397570413;0.4380528248897049;0.4321041258205895;0.17287095757244986;0.5176470588235295;0.0
0.5123261933677947;0.4175761146134219;0.4702777336760778;0.409182698508966;0.17278862305150752;0.5372549019607843;0.0
0.5763898923897498;0.5208625739975224;0.434595464187657;0.5254977149836831;0.18062913000768577;0.5294117647058824;0.0
0.49472801342836686;0.44793316342214606;0.3432783319147294;0.3322706468176058;0.3181510075682316;0.4666666666666667;0.0
0.5301788583518309;0.45511605253997744;0.40246283713271946;0.4484829580303053;0.1921102666378536;0.5450980392156862;0.0
0.347306332221122;0.4226825191436447;0.4506695712215665;0.5215391601418996;0.22138324424175784;0.2627450980392157;0.0
0.7133665923300324;0.27284418811046485;0.43954934578162713;0.6217694860015933;0.443648173807891;0.1803921568627451;0.0
0.5007013331010968;0.4160796827334151;0.43136754713480674;0.38898448438976385;0.1903390057086476;0.5607843137254902;0.0
0.3152272365708924;0.5336687030961872;0.4699636788912213;0.40550338610473113;0.08012918741136418;0.49411764705882355;0.0
0.49382321299444687;0.4520861285511278;0.45236653431514134;0.5889494483986331;0.13756842832790311;0.5137254901960784;0.0
0.23166303632098154;0.4686090641910118;0.4454674056724102;0.307880610139911;0.06620486358096013;0.48627450980392156;0.0
0.7012851557858729;0.277736041154301;0.42795423296393886;0.4606617531215293;0.4404232387756819;0.16470588235294117;0.0
0.6059368072096939;0.46533122599643667;0.4136121697170837;0.4100861216833084;0.27408667833897504;0.5254901960784314;0.0
0.41184153213632485;0.4685470760103731;0.06528208959688427;0.4654758686931398;0.20764578977248024;0.3607843137254902;0.0
0.6060131575259224;0.7501941514183644;0.4683421761722456;0.5345842765928608;0.29167856332565106;0.3568627450980392;0.0
0.6534212226961504;0.17972404462578967;0.4454674056724102;0.3839887321751283;0.4308027697444059;0.1803921568627451;0.0
0.42499860293581154;0.48598909644359434;0.42410752063614005;0.494912803021607;0.20967438077842016;0.3843137254901961;0.0
0.5429043159783865;0.48333908157936406;0.47876126518700934;0.41642795528923593;0.1943741288023554;0.5058823529411764;0.0
0.651735311645426;0.18838977349525024;0.4691396452355427;0.5535901415824307;0.46081339665065835;0.1843137254901961;0.0
0.6773767574038687;0.520951499052088;0.02036477413064064;0.5588696367677587;0.3297772950004468;0.4549019607843137;0.0
0.4340399465307762;0.5394145460173504;0.7779769562370284;0.5629200182535704;0.26692428209264685;0.3333333333333333;0.0
0.7049423834465982;0.263671695587083;0.4454674056724102;0.5854478240360805;0.5221486609538079;0.2235294117647059;0.0
0.5182866915443841;0.48005709049031037;0.41874859089922967;0.2966813296443479;0.37261554496024296;0.22745098039215686;0.0
0.24929780657117992;0.5033913186583882;0.4648971806150415;0.371928742461762;0.05882009052485382;0.4549019607843137;0.0
0.4535639756847075;0.4686726120703367;0.46012805403821383;0.5045439080903251;0.15295176352299233;0.49019607843137253;0.0
0.5643843444134785;0.4798518391204208;0.48523190397965843;0.3847404852351044;0.29015737108649414;0.34901960784313724;0.0
0.4091324158293373;0.48562661675759144;0.4409246695590626;0.4663548685396621;0.1933390640967963;0.34509803921568627;0.0
0.6482663219474467;0.45689086694510855;0.47537124472318837;0.37217573598973697;0.34787393308363856;0.36470588235294116;0.0
0.9515666431590893;0.5015161124062342;0.13499049729006424;0.6661930595575773;0.7101096018451661;0.49019607843137253;0.0
0.38578289690496115;0.40220645879884165;0.47291713027221277;0.5748251359985762;0.22990255738570678;0.25098039215686274;0.0
0.408059766018524;0.432364349587742;0.48105739342939563;0.5146704596912564;0.21725724847373815;0.3137254901960784;0.0
0.3000177749198295;0.4973304950157793;0.44135868893294933;0.3866216390643623;0.07495074737503536;0.5137254901960784;0.0
0.44600703853680007;0.4109293085727217;0.43809519392274887;0.4084245130100755;0.16475662376893385;0.4627450980392157;0.0
0.4440962618559416;0.4699272310260967;0.4549537075561655;0.3414734522824868;0.15769440129377338;0.3764705882352941;0.0
0.39610600266964424;0.4331152479386658;0.4323916922650718;0.3783574058073122;0.20743646193967957;0.39215686274509803;0.0
0.5532096277785824;0.42093117688572546;0.44169507509875305;0.3907086673868675;0.19744898645154907;0.5490196078431373;0.0
0.5661196361746347;0.4747711717182252;0.4527563155943916;0.4195554307624408;0.20038122208554;0.5019607843137255;0.0
0.5743536953963658;0.4666116044315049;0.9176744327748956;0.36621072898815954;0.3167121062240535;0.40784313725490196;0.0
0.6165164680650876;0.8733948442547418;0.043868322033275835;0.4743590038685929;0.3071877416820104;0.5098039215686274;0.0
0.34637218591331204;0.23293767469376425;0.45941483330690447;0.008784574800784166;0.14882466742940176;0.5137254901960784;0.0
0.623881810909062;0.5711797978125307;0.5943293736944163;0.6127599935048085;0.2780307297541451;0.45098039215686275;0.0
0.6814506161009425;0.5156130948405047;0.4692122594673316;0.5311922345134347;0.342497461237457;0.5058823529411764;0.0
0.41366243567414085;0.47396968433874437;0.4540683193803484;0.4672061441354735;0.19605598634655758;0.38823529411764707;0.0
0.4897034258317539;0.44429828811114874;0.46064548868641864;0.455441234885818;0.16665034072336282;0.5607843137254902;0.0
0.4002777522173556;0.4162796151646697;0.46035360247461077;0.5587412939767953;0.2331889751799326;0.2901960784313726;0.0
0.427111611156201;0.47398166648313983;0.42017060064906275;0.4876887314333529;0.202791218045552;0.3686274509803922;0.0
0.928310625469957;0.3271032471133248;0.4454674056724102;0.5118545376820244;0.7945771583584623;0.796078431372549;0.0
0.3831653083799931;0.4437999314081961;0.45474896722773905;0.4187693780797234;0.19135863743911483;0.3568627450980392;0.0
0.3581874294891251;0.48572723149525654;0.44085977332887183;0.4440316493021013;0.1474628463847249;0.32941176470588235;0.0
0.6638182069874408;0.23954083239411952;0.4396031463260888;0.4020322838471357;0.41533868232121574;0.1843137254901961;0.0
0.6430289478092901;0.5065813075270844;0.4415340609889019;0.5223750008683462;0.23103615846271983;0.5098039215686274;0.0
0.3709832650524792;0.42715647834095327;0.47682490356593465;0.36876692637967073;0.20108010274766594;0.38823529411764707;0.0
0.37950002532698335;0.5068690034268322;0.48081362638996417;0.46818426423277787;0.18197893664311235;0.3607843137254902;0.0
0.4725305680128166;0.47992667809378814;0.39887912308774537;0.4564352308426983;0.16089377716891007;0.611764705882353;0.0
0.2745775007163601;0.4822500161943936;0.4495761224118711;0.3633894961159497;0.06726180322235806;0.4235294117647059;0.0
0.8731701830332974;0.48878847001654396;0.43415041395143894;0.5990841052988158;0.5764156152132764;0.49411764705882355;0.0
0.6979846364424115;0.5136743313183916;0.45691832628948764;0.5048541578308255;0.3273065074673188;0.4235294117647059;0.0
0.3282376961265285;0.4603961045384302;0.42779429531363317;0.29784787263651097;0.20921798080980383;0.3607843137254902;0.0
0.7294399876599199;0.2638356603658003;0.43394832481356455;0.6130393649278596;0.4433324716001839;0.18823529411764706;0.0
0.44569569403197207;0.48228020212787903;0.4686713095607325;0.5671621300709573;0.19107160229694564;0.35294117647058826;0.0
0.7245616772279367;0.2715352277203338;0.3218292711207996;0.6872811788932841;0.4329444802651371;0.1843137254901961;0.0
0.5257862449663662;0.7094783884479715;0.4624428932538671;0.3654720403543228;0.2896201568252068;0.403921568627451;0.0
0.6332944889962873;0.46670272168848437;0.5086209678635643;0.43080498352576757;0.3177691309762735;0.40784313725490196;0.0
0.36659318588507467;0.44959373726207796;0.4636383501258006;0.4244261982550006;0.18552320844480208;0.3333333333333333;0.0
0.4356260378987831;0.3619429113539572;0.4414357273718142;0.3654937066657759;0.1934059096159047;0.42745098039215684;0.0
0.6772688349370696;0.5590043748785231;0.4454674056724102;0.5883140019852847;0.3264499071678031;0.40784313725490196;0.0
0.2347780499548808;0.40188844213006425;0.47478870240401744;0.18810931582268914;0.08933138180371913;0.4235294117647059;0.0
0.645901178627355;0.5358621337804882;0.4454674056724102;0.5371954497898066;0.3538732106392791;0.23529411764705882;0.0
0.3363547866075423;0.4748673282604718;0.4363819334457149;0.49668214944955746;0.1548939516551545;0.34509803921568627;0.0
0.35327324872137705;0.43964959076953786;0.44107918439284993;0.39463153339915297;0.15772534406407107;0.37254901960784315;0.0
0.6705714347008419;0.251229711105748;0.4819807185834683;0.446573388603477;0.4590211529368886;0.17647058823529413;0.0
0.4924459195980483;0.4475597256398757;0.4274487317032661;0.4620324512063162;0.17636729679595498;0.5568627450980392;0.0
0.560161026215483;0.5103652581489572;0.44186367087858136;0.4762842646528863;0.194784334483653;0.5647058823529412;0.0
0.5967415246307288;0.4668770684961823;0.4566535651191505;0.45729580580199825;0.20758254141375504;0.5058823529411764;0.0
0.6686607744486305;0.7606414788539546;0.48292299762633434;0.5829331840345442;0.3110740885505028;0.3764705882352941;0.0
0.4702652396764703;0.45406988209368593;0.467711148020526;0.45134010166558924;0.15161332712849773;0.5294117647058824;0.0
0.6433311245629262;0.1836087578350651;0.4687131183965672;0.5065157304373802;0.4769254648043064;0.1803921568627451;0.0
0.2265129674965665;0.4672957845701265;0.453899674013526;0.2924160949971294;0.06859857687684247;0.49019607843137253;0.0
0.5992638081025561;0.07935283973303732;0.4280331211292924;0.19361050287636503;0.4187778676170588;0.19215686274509805;0.0
0.41385583805946674;0.45239962669549494;0.4312379528467772;0.5427578278642291;0.22550777947857106;0.2980392156862745;0.0
0.6101437756227799;0.6348589385999445;0.39136488396118646;0.7323994075351244;0.2526411966232368;0.3607843137254902;0.0
0.2937076348252371;0.5443719409478067;0.4738666490476776;0.42011856389705726;0.07140920663812654;0.4235294117647059;0.0
0.39415251649967153;0.45708080957523;0.4454674056724102;0.46136708069834964;0.19410224208407287;0.32941176470588235;0.0
0.245737061380486;0.4706828705541769;0.4730008184569683;0.3068650542968775;0.06421973732178132;0.4392156862745098;0.0
0.39931144834546445;0.49053833522423246;0.4454674056724102;0.4902805864663669;0.19447760083572868;0.3411764705882353;0.0
0.36271305743895677;0.52613832542873;0.46110543059593406;0.3930237731298782;0.12519437122295426;0.4117647058823529;0.0
0.2632455448210859;0.494967734342394;0.4532864181341722;0.3523760707481502;0.07248308689790278;0.4470588235294118;0.0
0.6243630935284736;0.510670563761111;0.022063352482405842;0.5041710365333733;0.33865355017077275;0.4627450980392157;0.0
0.42468564084457777;0.45387757634932435;0.46696968994225563;0.2695020838624849;0.1726807209899167;0.40784313725490196;0.0
0.2625652602245631;0.4886010275339626;0.4586320695110909;0.3697364278392527;0.0638108099687365;0.40784313725490196;0.0
0.4459498622166727;0.4101828152801245;0.48297138986400096;0.41121559560517434;0.1461069493843536;0.5568627450980392;0.0
0.3659728882495162;0.535549589934852;0.4375035966835786;0.4088929065643316;0.1046878432950471;0.4823529411764706;0.0
0.4528879328578973;0.4548033160279597;0.46328697827172954;0.40818249574123244;0.1521023841266917;0.5607843137254902;0.0
0.5649413843247145;0.4985915629959415;0.48926835511098393;0.42104947278855515;0.20884283357935784;0.45098039215686275;0.0
0.6129778264989204;0.5409354014578789;0.4553915368738771;0.5697105732018045;0.29999868398792934;0.4;0.0
0.7564812446357675;0.5107805596011304;0.014482755896907958;0.48021394163893627;0.4651887468799187;0.2196078431372549;0.0
0.5437536175462542;0.44636877557547155;0.4104093334933146;0.502308970971162;0.17743512447232967;0.615686274509804;0.0
0.29105419018520906;0.5301512840054946;0.48044100056914657;0.3989096500538835;0.07178260226608253;0.4470588235294118;0.0
0.3872425287554221;0.4499356750378015;0.4138906245768332;0.412709779896737;0.19750268564249338;0.3411764705882353;0.0
0.5972149671832161;0.5230626487183759;0.4765550455806203;0.47848951093786074;0.21158180438224897;0.5411764705882353;0.0
0.7446685770348005;0.5676588279281893;0.49406845915904696;0.633665043277235;0.41799171229367127;0.2196078431372549;0.0
0.4285210591378949;0.43307204636190155;0.45990923839096304;0.5489166737663435;0.23998980578347373;0.3215686274509804;0.0
0.49811650103041377;0.5040069913687937;0.46836924690656495;0.42739985637875627;0.1716374518706064;0.4980392156862745;0.0
0.2844121403154454;0.4746827675728083;0.42568002750997586;0.31902594107945764;0.07802863928399303;0.4980392156862745;0.0
0.7604180880967303;0.3651238201107112;0.4220103682871244;0.680637848178258;0.42913203981388937;0.17647058823529413;0.0
0.6917687132739891;0.542683063289854;0.4258006822548688;0.5571964820998822;0.39179929632630256;0.30196078431372547;0.0
0.3061408835168181;0.5243078890104428;0.6389879641010181;0.37085273582011047;0.06836742165582999;0.43137254901960786;0.0
0.6883232474076595;0.280700330296272;0.4513316650187316;0.7160561173276903;0.429094415565846;0.17254901960784313;0.0
0.5006892977019181;0.48904590167362577;0.45301206681972445;0.53864974892505;0.17078813457630126;0.5529411764705883;0.0
0.47761954749939234;0.4336770266315277;0.43113254949251323;0.4832825623266061;0.15908821441900128;0.5411764705882353;0.0
0.6246402630475117;0.4959891249288599;0.41210179215023646;0.4687137681351533;0.21939354172155234;0.5764705882352941;0.0
0.27437417925546453;0.4615712071805638;0.46501493682681516;0.31608417038839853;0.07872174066781189;0.4666666666666667;0.0
0.812124217928648;0.38043433500722623;0.45122694610183306;0.7502802383498763;0.5846221405271113;0.17647058823529413;0.0
0.3246172833419999;0.5252653440671333;0.4454674056724102;0.3645157108811296;0.0927482932270577;0.4392156862745098;0.0
0.5015667799253243;0.44814553120849693;0.44911186063340097;0.4607702212088408;0.17419682067371178;0.5098039215686274;0.0
0.2740098573890555;0.4978075788462652;0.43314125545402743;0.3526340310048054;0.07505895689651187;0.47843137254901963;0.0
0.7542318827974953;0.5429549534937874;0.4250538446567342;0.5615900014838792;0.38875237904854143;0.4823529411764706;0.0
0.3629303077980314;0.5123289356812617;0.41858955033510353;0.49701329084743456;0.15453382464615145;0.33725490196078434;0.0
0.5448526450786185;0.4446073776297799;0.4605567279670385;0.4136682651815521;0.2000503706095228;0.47843137254901963;0.0
0.2922793927339236;0.462104545141527;0.41437976576420005;0.2825103136136009;0.0843883416249468;0.49411764705882355;0.0
0.7011718118567103;0.1711633075877054;0.4454674056724102;0.3613526751845975;0.436362503928229;0.1843137254901961;0.0
0.6825159205746913;0.2165832271713035;0.4750577051263259;0.5369893913706005;0.45439667065820016;0.19607843137254902;0.0
0.5784461450029652;0.48452493223749926;0.4169560895134992;0.5528686758698657;0.1829933189599308;0.5450980392156862;0.0
0.5619189468009717;0.444215202310302;0.4454674056724102;0.49671203885556553;0.18815920814850803;0.5686274509803921;0.0
0.3613065501433346;0.40173832785176455;0.42577065672293357;0.5872505989026275;0.22136955786384857;0.3137254901960784;0.0
0.3932781826072937;0.44323832508461936;0.4318391973323673;0.4232530818703221;0.21244688877406137;0.3607843137254902;0.0
0.9162360811258897;0.3466551357116012;0.13618797439381314;0.4973088062123217;0.7810638260555234;0.7686274509803922;0.0
0.390808135665984;0.42285250139912767;0.4656257971753902;0.5104329807916358;0.2091556321658569;0.3333333333333333;0.0
0.5938837623875917;0.1584519662748108;0.4338445493103316;0.3331235507832659;0.4622066818077948;0.12941176470588237;0.0
0.6947810949967115;0.4772326092008003;0.4368664919644722;0.4303691727295806;0.35559663634109945;0.3843137254901961;0.0
0.6638892415622881;0.8732198810213989;0.1118112704506725;0.4949271444210631;0.36716180314610053;0.37254901960784315;0.0
0.3871084087222943;0.4404868778908504;0.43675026340085127;0.391183114641765;0.20431017020602268;0.34901960784313724;0.0
0.5511625872573701;0.4689951101731179;0.4416504321333844;0.5243312379666907;0.18656184770540718;0.5176470588235295;0.0
0.6393453445928055;0.567092523668543;0.4680222493121081;0.6211698459359558;0.21411237930661123;0.4666666666666667;0.0
0.5611195191849192;0.7077083962624848;0.4730008184569683;0.44322975852753915;0.2749497667746542;0.4196078431372549;0.0
0.28779991385970416;0.5178025998298792;0.4534312146612417;0.4109115645209561;0.06951231294143553;0.43137254901960786;0.0
0.6165613090062285;0.12604403389656116;0.1127171242114555;0.31670238047672467;0.447150255934769;0.1803921568627451;0.0
0.5908708605869788;0.4604730238821081;0.4454674056724102;0.4429250689862805;0.2201929177061898;0.5215686274509804;0.0
0.40302310187359874;0.4698044879032777;0.4193159788577335;0.45673636754258345;0.23491673853591638;0.2235294117647059;0.0
0.6765029047424886;0.44553288862274026;0.03961179007907978;0.41920297051405403;0.44847557691685924;0.23137254901960785;0.0
0.8437396877807791;0.5075039911691973;0.4633034018409456;0.6323203075277665;0.6023829973244966;0.4745098039215686;0.0
0.5048113591359666;0.4364550725590506;0.46696968994225563;0.48075189357185966;0.16698277088907995;0.5529411764705883;0.0
0.5394402126490322;0.42323659685208886;0.4196646645485958;0.4701030458595322;0.18619335019638775;0.5176470588235295;0.0
0.5617547901542363;0.47938759993187335;0.41900305580183134;0.5003478228581133;0.17501520659699144;0.5176470588235295;0.0
0.6549644239994129;0.1364207540081292;0.43394832481356455;0.3671473893748131;0.47492638694800365;0.17647058823529413;0.0
0.4121437591182756;0.4555689143900036;0.459592993878878;0.4229509848243924;0.1998066024033791;0.35294117647058826;0.0
0.6583657657315622;0.5052331073630528;0.4972321640998156;0.48454906699523437;0.2804087826266829;0.7137254901960784;0.0
0.6651095763610407;0.26938838515087393;0.4698096142797823;0.4597219593820752;0.44833149549409446;0.16862745098039217;0.0
0.6239400085312579;0.4872672855596197;0.3913898045147154;0.4579830149853606;0.3820362046410189;0.3058823529411765;0.0
0.4336253143152545;0.48807455210173084;0.4454674056724102;0.61730157884114;0.21704647273354855;0.34901960784313724;0.0
0.3411775053478821;0.4826187575558744;0.41776507624500214;0.36514444347154235;0.10870524067899924;0.47058823529411764;0.0
0.6765403666188974;0.4580613978665463;0.5029894400248627;0.4983085594847299;0.38663470275915934;0.2235294117647059;0.0
0.700253228955833;0.27671030441216765;0.46274602696067874;0.5559001811328066;0.4229591849409775;0.1803921568627451;0.0
0.4697387875275175;0.41814342348354466;0.42615397668751914;0.42007161227298767;0.15150412934455468;0.6313725490196078;0.0
0.5998454769417426;0.5195109600434661;0.4760031939846166;0.4931321425547932;0.20561630538411313;0.5019607843137255;0.0
0.3736306634324722;0.5421037752156979;0.6907000692458527;0.4035501365958372;0.1035981653420019;0.47843137254901963;0.0
0.5369903614759077;0.46530849625332776;0.42335077042342634;0.41617418528875694;0.19313474341953107;0.5411764705882353;0.0
0.4627287388685183;0.5055033736769419;0.3855681852064126;0.3988121555042615;0.1669673929075572;0.39215686274509803;0.0
0.5871245571033913;0.4775937621238299;0.47202905094692504;0.4904364257304808;0.19960643923243535;0.4666666666666667;0.0
0.4986255330724556;0.43119107414170205;0.46021182917173276;0.45593429778455175;0.16780795147395372;0.5803921568627451;0.0
0.38427924265748614;0.5514253695596583;0.42568002750997586;0.5184661498133496;0.11649652956076198;0.4235294117647059;0.0
0.4050827689783419;0.4254552505617157;0.4454674056724102;0.5468472021834557;0.2218288997745868;0.39215686274509803;0.0
0.8569107779751812;0.13132856385347078;0.4795816066774533;0.40268775627584713;0.7004590427118523;0.792156862745098;0.0
0.3779452632943758;0.5117666248749416;0.46550058977475056;0.3973089232084545;0.11631832995030197;0.42745098039215684;0.0
0.6166121232808573;0.5174989926721181;0.4823284644207165;0.5240381469453292;0.20013259411807388;0.5176470588235295;0.0
0.3870683283453893;0.47884841707007275;0.414326166385048;0.45283565019023536;0.18526949698497056;0.3607843137254902;0.0
0.3258600527750447;0.5303806931334403;0.4454674056724102;0.394710711509;0.0978747537710284;0.43137254901960786;0.0
0.31722968481119646;0.5159643394823555;0.44960246033968815;0.42768659614740645;0.0795125236568132;0.4823529411764706;0.0
0.35662894649077875;0.4177538028140231;0.45854311907974854;0.33491719790423746;0.19430735590701925;0.4;0.0
0.5068660798709878;0.5309325093952713;0.4493533606609365;0.434303353878163;0.07101997947241308;0.4823529411764706;0.0
0.6759000105009643;0.5154948974645128;0.457055463063345;0.5220585178105452;0.33471448106230617;0.4666666666666667;0.0
0.5841664374323954;0.5113159878281556;0.457055463063345;0.5026371647337851;0.1930123521443586;0.4980392156862745;0.0
0.6496107658542818;0.7735886651515975;0.5405736630198029;0.5228513259045404;0.3035392214493997;0.35294117647058826;0.0
0.25218710339770617;0.48083487061818414;0.44119542866515615;0.34289644095190713;0.06085460909467382;0.47058823529411764;0.0
0.3991077395714762;0.5329322912864721;0.427548835447539;0.5493407726284222;0.1657490315567484;0.3568627450980392;0.0
0.2589916152134502;0.28689859775707155;0.464111004750311;0.07944855577678576;0.13430305082086375;0.5137254901960784;0.0
0.27223706927934915;0.5169262508298731;0.4291365568598694;0.4529556358586382;0.052336902840199984;0.4117647058823529;0.0
0.5971350498485146;0.4957903039481475;0.44184342517749237;0.4353704104924417;0.319090564477734;0.47843137254901963;0.0
0.5636048465651627;0.4203804572431407;0.4419615984545007;0.42876995317406547;0.18879183897803864;0.5725490196078431;0.0
0.5799602256049502;0.5406212934265786;0.47902588401263124;0.700085610640901;0.17399569320568264;0.5333333333333333;0.0
0.3847058895304983;0.5363484512780456;0.4413056732330852;0.4562091875463779;0.09354521000195203;0.4235294117647059;0.0
0.5909850164973487;0.4781269148776864;0.43080675730660645;0.43987583548436743;0.21926338766575248;0.4980392156862745;0.0
0.3068268901154208;0.3533001485813389;0.47413711803220404;0.3097957862351739;0.18785393393996705;0.3411764705882353;0.0
0.7837150835671656;0.3334597160896508;0.46355343917041086;0.64039928157757;0.5266968687110105;0.1803921568627451;0.0
0.39366232919314603;0.46433351671724654;0.467711148020526;0.46363638335002155;0.18708778561250336;0.3568627450980392;0.0
0.3894831576376489;0.45201421202812914;0.9180176064864527;0.41196127426230633;0.1919626644407494;0.34509803921568627;0.0
0.40738726478687115;0.41533942047603467;0.4360503468680984;0.6304662643820738;0.20781047289240168;0.34901960784313724;0.0
0.3324455200498376;0.5293662432067046;0.41070323349960636;0.4198849055648925;0.07713229096901533;0.49411764705882355;0.0
0.4658892984462168;0.5605239506904343;0.45468267035948673;0.7488928618346272;0.2300812184392166;0.30980392156862746;0.0
0.3813597371874334;0.4645121171956446;0.44101865720278705;0.42507347902550635;0.18043199999600953;0.3686274509803922;0.0
0.7683698125595151;0.40632841781479706;0.4786251337520782;0.3935067793499505;0.6142850697048858;0.7686274509803922;0.0
0.46338461286170224;0.5204451710151252;0.49963346528347097;0.45060515619309865;0.181808819753632;0.3215686274509804;0.0
0.2789705565779426;0.49026954991490385;0.4493533606609365;0.38272797765728855;0.08173624695816917;0.4627450980392157;0.0
0.2822112971607873;0.468508796270546;0.7219253462847072;0.3052822585656098;0.08258318548259451;0.47058823529411764;0.0
0.3642024076252335;0.5357311209171689;0.4577935558907929;0.38185579134116193;0.09448318438314046;0.4470588235294118;0.0
0.5412195762668902;0.4235908418361623;0.4746230453603361;0.4285280513521614;0.1894248380145921;0.4980392156862745;0.0
0.4772052601422189;0.41935883645730226;0.4238449969094374;0.427150792170892;0.1664065085370183;0.5333333333333333;0.0
0.5464413895575206;0.5142021274204754;0.43421621041493286;0.45178829627211026;0.19554281542002572;0.5098039215686274;0.0
0.359519371871832;0.39574298059502505;0.4407929960485308;0.4808495933960915;0.23688684298742863;0.2980392156862745;0.0
0.39947329787687835;0.45058312749711665;0.41453946254455054;0.4041011217231599;0.20316627540151744;0.35294117647058826;0.0
0.39403734738648827;0.46964131634726913;0.4369234516579021;0.44641957876812516;0.18056235025620374;0.3764705882352941;0.0
0.5570638844529454;0.43899501140335156;0.430199511516307;0.4006908580188961;0.19599030139744197;0.5176470588235295;0.0
0.37298921564749365;0.5075943917884751;0.43387934828147545;0.39963678311481254;0.1163988965937123;0.49411764705882355;0.0
0.6344044281865413;0.13970151735723757;0.12439257268376969;0.44404221364193175;0.5160582374468946;0.17254901960784313;0.0
0.5265014986554096;0.49980272948960475;0.47127014679622464;0.42539831719617077;0.1795129931473346;0.5333333333333333;0.0
0.4335204214271252;0.4841380631948576;0.45919226797231144;0.5259219904269056;0.20446164485316154;0.35294117647058826;0.0
0.49256130161636086;0.4228695060681044;0.4040726338160235;0.4448508356900493;0.1801411396051872;0.5019607843137255;0.0
0.34543462146084764;0.3634069097900897;0.4320284780037568;0.3921376652670719;0.21846072939429176;0.34509803921568627;0.0
1.0;0.6831816188374462;0.4604689993490465;0.7446620230725659;0.41244580682361454;0.34509803921568627;0.0
0.40166799647990037;0.44042578876322946;0.4403478141795898;0.6593091076021846;0.21844925048130048;0.25882352941176473;0.0
0.5242649487232285;0.4454474552809069;0.4534312146612417;0.42035075635622104;0.16512241459991425;0.6196078431372549;0.0
0.2485284955208705;0.43761065698401724;0.45881365108127975;0.25733237641678897;0.09077983290355308;0.3843137254901961;0.0
0.5298399453484923;0.47026174874866256;0.4454674056724102;0.28575546938317004;0.20923274484104362;0.5647058823529412;0.0
0.5628291949756833;0.4967352144337111;0.44955011787554555;0.46230262145462986;0.20189102263728798;0.4549019607843137;0.0
0.4268062406615884;0.4231300128713808;0.43787836416540604;0.42429368555054464;0.14633665346839397;0.5843137254901961;0.0
0.5944757835858204;0.4768914455094867;0.4307229821730877;0.4600301578545691;0.1937121842934448;0.5725490196078431;0.0
0.5465951380511146;0.47107746836679004;0.4230950867789295;0.4699123510547008;0.18966258777526818;0.5098039215686274;0.0
0.5068660798709878;0.5139040236658272;0.5888159674713791;0.4046827597403097;0.09003542655018042;0.4470588235294118;0.0
0.3830484146587454;0.43970361769026156;0.43669096311328964;0.5600852890090838;0.22548819688467886;0.25098039215686274;0.0
0.321613427699343;0.3707408332469818;0.42791452055416895;0.3892071737344823;0.21568781114915989;0.27058823529411763;0.0
0.5785238416988084;0.43694853803497113;0.45255607081631527;0.3967756122380246;0.20589659888795633;0.4823529411764706;0.0
0.4734545284323163;0.4509691469691384;0.42024126211560836;0.389587165526938;0.16876588840799167;0.5803921568627451;0.0
0.7241393908527495;0.29487082740780995;0.4338445493103316;0.6743722222195587;0.46477463034872574;0.18823529411764706;0.0
0.5011738130285123;0.4675541841965201;0.4746230453603361;0.4659575695010225;0.17129469200861366;0.5333333333333333;0.0
0.5692905312137945;0.4856637309290558;0.3923441151233805;0.43914236381628347;0.204658681117758;0.5529411764705883;0.0
0.5408431127058589;0.48178414518032847;0.45263483376235863;0.5061403443928978;0.16550324758513846;0.5137254901960784;0.0
0.30251214210298116;0.5225241602648919;0.42033486561674677;0.4321071087230436;0.0672464002734355;0.4627450980392157;0.0
0.41700047841329674;0.4950920158845332;0.432566035110503;0.5056157004254856;0.20137379133726482;0.3686274509803922;0.0
0.5477516483318896;0.5453657064918829;0.4287123789686346;0.538563315727873;0.23385069478851178;0.43529411764705883;0.0
0.38907929002380925;0.2693859424213593;0.41285158121815047;0.07685224213747094;0.16145560972064396;0.5764705882352941;0.0
0.40736234125448245;0.477666364258023;0.4498856832621045;0.4794090812727233;0.19182239726637687;0.34901960784313724;0.0
0.35497173580077374;0.4710410019150511;0.432651474650648;0.43677611006405415;0.17649057195097545;0.3843137254901961;0.0
0.649317533776312;0.24028774959479912;0.4281887843841416;0.5204928331167459;0.44070647431541465;0.13725490196078433;0.0
0.533964777158451;0.4505590752114164;0.4454674056724102;0.5178721233214918;0.18088754400006946;0.5333333333333333;0.0
0.39524350635255867;0.4740188322758973;0.4318391973323673;0.4603021903900137;0.20104940699855953;0.3333333333333333;0.0
0.5711306084228271;0.6874232461285518;0.4454674056724102;0.40266564879964606;0.2891414009628396;0.4392156862745098;0.0
0.5240386389629986;0.40994134156753154;0.4382599360847525;0.33575921618121046;0.19033892242972922;0.5215686274509804;0.0
0.421905108609559;0.4532314001903152;0.4725332180400478;0.3553593552585164;0.16897202971728384;0.2627450980392157;0.0
0.38159250123498173;0.45284241220317195;0.44104912808271596;0.39616509925365506;0.18294510874675404;0.35294117647058826;0.0
0.3380646237232977;0.5071522853238101;0.4751745089399595;0.38397716634014745;0.08788881709660269;0.41568627450980394;0.0
0.6213184215217624;0.3410256235930293;0.4335216921891629;0.6664005691728483;0.39491166434826036;0.16862745098039217;0.0
0.2634702136512196;0.6034290693428719;0.4255578832003311;0.4941536236410906;0.06360207780829714;0.33725490196078434;0.0
0.5736077502727737;0.5059691035268309;0.4454674056724102;0.5132057465857651;0.199592406723769;0.5333333333333333;0.0
0.3641465461664847;0.47605697477151515;0.4004626246425013;0.32314816290454834;0.12191178164259943;0.5098039215686274;0.0
0.4508437276062867;0.40438727316875145;0.45949063454404854;0.41992347038012157;0.1593883395468352;0.5607843137254902;0.0
0.5227409110383936;0.5862320971905525;0.46266923308828645;0.42619764865786103;0.17696285312602528;0.6196078431372549;0.0
0.6475918386972033;0.533208338099954;0.7902454120682058;0.5402568085194032;0.2933908777891312;0.4470588235294118;0.0
0.5876868759573222;0.4456318831843831;0.4718737196880098;0.3558435637805577;0.2006438412541175;0.5058823529411764;0.0
0.6211893252340327;0.48844190669905196;0.467711148020526;0.44129802610925983;0.21471381784731575;0.5137254901960784;0.0
0.6893377685862138;0.15403628362656702;0.16900946506011322;0.4034439135333484;0.5199924841735308;0.14901960784313725;0.0
0.5296628598590734;0.46454848242540164;0.4104093334933146;0.3665873477395969;0.20414141676828362;0.5764705882352941;0.0
0.5805038255990939;0.4447193238502619;0.4454674056724102;0.39135219638777785;0.21430835600427686;0.5176470588235295;0.0
0.6935546424599878;0.4906364593543511;0.4454674056724102;0.46779899697475175;0.3513739962144183;0.5058823529411764;0.0
0.3893651489730142;0.4504315743283598;0.7407452530400044;0.42905748985486375;0.2016776017076063;0.34901960784313724;0.0
0.39470693022999;0.4438027739153524;0.44075887627025423;0.5710888177097222;0.22666781557815033;0.3058823529411765;0.0
0.5491341935092661;0.49441582170216997;0.4881871757449505;0.5721808973962252;0.17040491788666606;0.5254901960784314;0.0
0.3999400118822881;0.42775292303536466;0.47008834185925596;0.6201288775425606;0.20907325469635224;0.3176470588235294;0.0
0.32409435538598397;0.4758595052205181;0.43421621041493286;0.39647838683184383;0.09824410600120255;0.40784313725490196;0.0
0.5407973663057309;0.4608634905255413;0.4563393471571634;0.3615957696446297;0.19162575848877975;0.596078431372549;0.0
0.3565197953776326;0.37529978711084744;0.431742543372509;0.378880604287693;0.275852857339302;0.34509803921568627;0.0
0.49534103124902185;0.4486239033755349;0.42347643312370475;0.408595245185008;0.1741404220989474;0.611764705882353;0.0
0.664803564124456;0.7657256187705723;0.4843269555576729;0.6195935042512496;0.29348889063917527;0.38823529411764707;0.0
0.31429499058328364;0.4450032329605643;0.43394832481356455;0.32933854578054;0.10051671939871493;0.4549019607843137;0.0
0.5654310311630625;0.5039448585474554;0.76800166972009;0.43651022772835035;0.3375618102433908;0.3058823529411765;0.0
0.3471663745072337;0.4235999664666705;0.42690428256175234;0.4547632293603321;0.2201699976080221;0.3333333333333333;0.0
0.4838748187146179;0.5185547356690042;0.40246283713271946;0.5398750501904939;0.1805950685559398;0.3176470588235294;0.0
0.5836855793202544;0.4831565584669124;0.42009954220798595;0.4946150575234723;0.18837986176609892;0.5803921568627451;0.0
0.5917946992483449;0.4893412613793722;0.4415340609889019;0.5060528226692543;0.21805626671082837;0.47843137254901963;0.0
0.23991539168594583;0.4727843982485411;0.4454674056724102;0.3189613376048496;0.059226690938223484;0.4196078431372549;0.0
0.6328119816189772;0.4983064864443507;0.4574873161338144;0.5025580037276063;0.23824058787939437;0.44313725490196076;0.0
0.34608194382040897;0.4396264570892314;0.4498556269519705;0.3865697596975783;0.18636648027241065;0.38823529411764707;0.0
0.34409667233874414;0.5245596869484931;0.4661426790088;0.4015793730766186;0.08651754398905398;0.43529411764705883;0.0
0.49471076314451035;0.566578859117739;0.40624026545039515;0.5853773699157915;0.15408325741917273;0.35294117647058826;0.0
0.7631481499807801;0.5330333537663586;0.4786423585458858;0.5332190149794841;0.3736645686896;0.4588235294117647;0.0
0.47615187463853453;0.3965105253866536;0.40792373472506116;0.43125627800287525;0.17153785936513666;0.5411764705882353;0.0
0.6101894871091528;0.47570631787843815;0.4604689993490465;0.4719538537897472;0.1922002361832021;0.5411764705882353;0.0
0.7060500940331854;0.4962394663520423;0.4415099300399234;0.4174147365432476;0.3827292303895143;0.38823529411764707;0.0
0.565151167497515;0.50460589992469;0.4529682025107284;0.49036130983142534;0.1978555907323667;0.4745098039215686;0.0
0.2992293065817885;0.35686125280182385;0.4112592261522018;0.40695488399355323;0.23280435396883975;0.26666666666666666;0.0
0.3995177065841173;0.4955534499230003;0.4454674056724102;0.6672429613433428;0.20772390709458738;0.2196078431372549;0.0
0.8541211854069353;0.2131890281592094;0.4630601837113745;0.13438193052154282;0.8742539549385896;0.5254901960784314;0.0
0.2899871691104119;0.49259045348601876;0.4334474952110059;0.37058392971124776;0.0687505981132565;0.47843137254901963;0.0
0.5805554447116082;0.5149033771626923;0.456462891946763;0.5226296836358725;0.18632541332878652;0.5294117647058824;0.0
0.39890725009650574;0.4392776691768939;0.4681810862391482;0.40345188180297176;0.20862349124100996;0.3686274509803922;0.0
0.7007163388874185;0.4528367079019613;0.409630265222668;0.4434909098384019;0.35012569753494116;0.6039215686274509;0.0
0.48009664943378355;0.4197093910573644;0.4383395766326825;0.440508257021437;0.1636770742626805;0.5254901960784314;0.0
0.33362315059330855;0.5326618217566418;0.5239216861164403;0.42310567434398444;0.08309547120034398;0.403921568627451;0.0
0.3691275311697523;0.5447080029143216;0.43740404907121827;0.41210537232954264;0.09584834957969306;0.47058823529411764;0.0
0.6545198963661014;0.474350756594428;0.4577935558907929;0.40463371292347944;0.3396229578627124;0.47843137254901963;0.0
0.40324572502435957;0.501670097666174;0.24005452242416717;0.4113686382069969;0.13433669199321283;0.4627450980392157;0.0
0.254598168269214;0.46821655697209924;0.42973402693837703;0.28930287471106525;0.08344661650884252;0.4745098039215686;0.0
0.5459548617918514;0.49425778188683817;0.8364180287605069;0.47201459519793165;0.2982482114116021;0.44313725490196076;0.0
0.3886334854942509;0.4971883999207186;0.3948737956257154;0.48793687627665244;0.1675684837372797;0.37254901960784315;0.0
0.37784273445046246;0.5543974137731754;0.49066328980648;0.4551205945524426;0.09180285683885288;0.49411764705882355;0.0
0.5758203353621084;0.5371107483362986;0.4414103709045149;0.5908838751216648;0.19602871351831352;0.49411764705882355;0.0
0.7331907293567929;0.4975896866161354;0.46550058977475056;0.4947740918838499;0.32110354434272154;0.6235294117647059;0.0
0.2696388938446577;0.4435510575553754;0.46601098936971463;0.2618287712837914;0.1156270249008552;0.4549019607843137;0.0
0.4516026244548601;0.4289186021377361;0.5031271623736714;0.3784061838364638;0.1707121071306412;0.5411764705882353;0.0
0.66941996417884;0.2638977736315082;0.4691396452355427;0.509119225509414;0.4561278048949098;0.10588235294117647;0.0
0.30898255108058736;0.48060791762398747;0.4577155422818158;0.33233202752976543;0.10079613627883291;0.4196078431372549;0.0
0.6526600935438884;0.2500771764479453;0.4454674056724102;0.4680551121306339;0.4089107528605315;0.16862745098039217;0.0
0.68823641873918;0.4951940562888864;0.46696968994225563;0.5166520507506758;0.3450679038902921;0.3843137254901961;0.0
0.3601323515232375;0.43732020544374534;0.4361858441170812;0.37844455720792913;0.16812526906121952;0.34901960784313724;0.0
0.7230850377211177;0.3393591674363435;0.4396031463260888;0.5239749612465926;0.4522328255150953;0.17647058823529413;0.0
0.6014028372700699;0.5256718901743203;0.6509032426454546;0.4785115239241101;0.29124372342769556;0.5490196078431373;0.0
0.4080456239363653;0.5030296509478099;0.467711148020526;0.4955240544575034;0.1838720301392837;0.403921568627451;0.0
0.31670763005087765;0.5090253332837442;0.4301086311939492;0.3831957289016361;0.08117791093252322;0.4980392156862745;0.0
0.3608583230971391;0.553070493643901;0.46989675654255075;0.4808712900008878;0.08575546323301278;0.4549019607843137;0.0
0.40929790088187107;0.450913172907638;0.4353882099209202;0.3845665205757274;0.1485245526991138;0.4980392156862745;0.0
0.4138135698803797;0.3978456632777501;0.4303486120451752;0.558219173588022;0.22273064435041068;0.27058823529411763;0.0
0.3710897661719617;0.5070447980413736;0.4413323510051323;0.39921284647939215;0.12137068735450025;0.47058823529411764;0.0
0.2988343428639378;0.5202285191551678;0.4619022726302538;0.4321495860650046;0.0642641282155693;0.43137254901960786;0.0
0.3458554475716688;0.5233537142173554;0.43764839321064836;0.35501764535723457;0.094928635251731;0.4745098039215686;0.0
0.5520968167061345;0.08452550157049069;0.4397078652429874;0.11818604808179446;0.4231869627740234;0.18823529411764706;0.0
0.3161625182806163;0.5091630517909457;0.5828784530773389;0.3269247971244894;0.10509165405663862;0.45098039215686275;0.0
0.19649512134694375;0.56931125010046;0.40727255861413225;0.7330522027690629;0.04949578300649163;0.3843137254901961;1.0
0.25647733031903364;0.5427074714575124;0.45412604363342174;0.7151517534457571;0.08575167756048323;0.3607843137254902;1.0
0.16512075364442838;0.44282029227346587;0.4498556269519705;0.48434171875426313;0.04947343887370813;0.9882352941176471;1.0
0.5472422483442357;0.5072498771615114;0.468234530193423;0.4720868712120691;0.23042247575559374;0.5411764705882353;1.0
0.1837982805210146;0.49678991329393146;0.23959447117389118;0.3729231977528695;0.11128347772716435;0.38823529411764707;1.0
0.08385154022565794;0.4578807852224856;0.47331209033839694;0.4806449348169647;0.04666328929170847;0.33725490196078434;1.0
0.05303373132015142;0.3867947399303526;0.04850215761372737;0.3825668970951214;0.0142609418400959;0.984313725490196;1.0
0.17296449619507645;0.4141099642753664;0.05910709992664071;0.4324578049376391;0.08357822513778648;0.35294117647058826;1.0
0.13261385609839793;0.3914720945933224;0.029894411610976643;0.4288872316522833;0.07763862018829563;0.4;1.0
0.11196921837172476;0.4333684600421949;0.06544213987605035;0.41726831208468135;0.035385284873122695;0.9450980392156862;1.0
0.18145060178754005;0.46461258904569963;0.4454674056724102;0.5801202224049822;0.06906034536985269;0.35294117647058826;1.0
0.19924873013068703;0.4188420019879888;0.4454674056724102;0.49376576972518754;0.08643553898095695;0.3607843137254902;1.0
0.04731869192833809;0.5542274687846483;0.05698075709957456;0.6405251582950319;0.008978387341905583;0.34901960784313724;1.0
0.5623109271000516;0.3721965109748188;0.526561734918684;0.033552633586236065;0.3142931229400283;0.5490196078431373;1.0
0.7691805462956215;0.375417619391547;0.43373888697976726;0.5416904549861495;0.44507317584056166;0.1607843137254902;1.0
0.27631361651578046;0.5904153947365972;0.5245403220195833;0.44865554520459644;0.08972877146570171;0.403921568627451;1.0
0.29887672849326447;0.5173125606257356;0.6080043576334458;0.6478400206470886;0.10725234183518863;0.28627450980392155;1.0
0.1464631317698026;0.5247791567370396;0.0447933972420451;0.6125672198944125;0.0513924896305608;0.3803921568627451;1.0
0.16700621219163758;0.4416606321351232;0.4098774179154248;0.5123815670317297;0.08034073951100659;0.38823529411764707;1.0
0.25060803629810746;0.5403862540862088;0.44122353377704604;0.7083266060017889;0.0735990209000068;0.3803921568627451;1.0
0.20083986232780862;0.4571758206995876;0.0;0.5885686670588888;0.08128246354096912;0.38823529411764707;1.0
0.2602251075422611;0.495208663874944;0.47179673334977185;0.671393352643499;0.08951779569703182;0.3843137254901961;1.0
0.5800695049663429;0.7323079153228325;0.5254345785767937;0.8076635854047132;0.19960653528120403;0.23137254901960785;1.0
0.11735630685720966;0.4556277886125776;0.06902514848361681;0.46782271480155657;0.03163713855157037;0.9803921568627451;1.0
0.11292525884568058;0.417315485367639;0.04796571808932378;0.44531573961676535;0.06966417516851722;0.3803921568627451;1.0
0.19219220767398626;0.4765330934566791;0.4637672220722786;0.6374063419258819;0.07093651287302911;0.3607843137254902;1.0
0.1116929006835797;0.476938982245274;0.039995759441041306;0.5606156324376297;0.04285093772742576;0.3568627450980392;1.0
0.04624549210629087;0.5646165287352278;0.3857388382561732;0.4225492651127795;0.017259977596328066;0.3058823529411765;1.0
0.21644900126826278;0.511691324548465;0.44994704822862797;0.6144874176909371;0.08158746456249448;0.34509803921568627;1.0
0.2503271105729305;0.5134137925978606;0.3888059809072772;0.7288051716762531;0.08404337449409444;0.37254901960784315;1.0
0.15417973281856961;0.46127966439908874;0.45828333669417254;0.5264232466552351;0.06625716454360872;0.38823529411764707;1.0
0.18059750523641965;0.452211788389371;0.4498856832621045;0.5550067540916995;0.06956942252081072;0.396078431372549;1.0
0.15040352032244383;0.4737771310076731;0.44119542866515615;0.5663094229412953;0.06752889974993954;0.4;1.0
0.1846358532809392;0.46411757106394114;0.3159407230926263;0.524253872092598;0.0764814994252921;0.35294117647058826;1.0
0.1022619028966238;0.4301860497763943;0.0651790723048979;0.46084477408263536;0.06550936733703137;0.396078431372549;1.0
0.0800589938901509;0.4491309860901104;0.3928087503176871;0.44118398216754573;0.04589149101653505;0.38823529411764707;1.0
0.06773535784971112;0.3955048653664994;0.05296539122285278;0.35817413311784446;0.06063235272144035;0.3803921568627451;1.0
0.2184612722187864;0.45946571067064185;0.47682490356593465;0.5519165092221796;0.07919067223433514;0.3568627450980392;1.0
0.2217374496030547;0.4819675737323554;0.07008854469036478;0.5696251929114862;0.07216589682584912;0.40784313725490196;1.0
0.10846456341986667;0.4893539961505869;0.4003577183930144;0.5728878852554875;0.043721821523891126;0.3686274509803922;1.0
0.14076457928090103;0.39710985131054216;0.6432256405629584;0.39384651146808436;0.07326342142957931;0.38823529411764707;1.0
0.14494085290866407;0.4661812235791116;0.03990451919661483;0.5196897089131653;0.049711082580336845;0.8431372549019608;1.0
0.23291507887599325;0.5203945593411997;0.44101865720278705;0.706941752131154;0.0749603077395486;0.34509803921568627;1.0
0.18760683466918932;0.4007756844408265;0.428379497643394;0.44598630375828535;0.04996243502343068;1.0;1.0
0.15310392643765264;0.4211696391390388;0.458722238441493;0.4634416170870764;0.07391545285234534;0.38823529411764707;1.0
0.15600931901288062;0.49836211957239185;0.04573079118778577;0.6705829258088969;0.06275568903820022;0.3764705882352941;1.0
0.26574058572692066;0.5516167553305457;0.40246283713271946;0.5411458265531072;0.09827185318048562;0.41568627450980394;1.0
0.19339315063598375;0.6148047757768238;0.9783501027946637;0.5282126540792569;0.03069345759055776;0.3803921568627451;1.0
0.0701327540483983;0.532960753891159;0.3996883488398363;0.5834903045085892;0.019557935131095928;0.36470588235294116;1.0
0.0835460550507334;0.5160039280929984;0.42410752063614005;0.5534794548155866;0.010838388154199663;0.9529411764705882;1.0
0.2367048369820605;0.5411218191798771;0.4497393826796643;0.7045430422624904;0.08057466547844903;0.403921568627451;1.0
0.20153449586122935;0.44591895956893557;0.4238208107698815;0.5380694794196267;0.08579517280078637;0.36470588235294116;1.0
0.23054645782454863;0.423006384397542;0.9523069634616214;0.5044633825117836;0.10493342533271643;0.403921568627451;1.0
0.12660693312255403;0.4519846460267874;0.4276724117939175;0.47715011795648926;0.06195634114685218;0.3333333333333333;1.0
0.18866676851689224;0.4528281422515155;0.42465874347578575;0.5497267743638798;0.07517932177606905;0.34509803921568627;1.0
0.10850497580406722;0.5365452670468652;0.29045093768050206;0.4046260524533374;0.08979946737126529;0.4666666666666667;1.0
0.06098070581037448;0.5684212090008952;0.3888059809072772;0.6228130124855183;0.0017982615211032799;0.9607843137254902;1.0
0.09225458613510953;0.4916373200962924;0.04694339355066971;0.5646444740330502;0.03688678784277992;0.3333333333333333;1.0
0.10362567845059407;0.42561092146835644;0.4230691928913213;0.4302715155758701;0.060374787206250356;0.3803921568627451;1.0
0.26560327469901945;0.6145420935636249;0.41527270861262744;0.5281716177891395;0.10979817620127942;0.08627450980392157;1.0
0.22935795670491815;0.6415388784917326;0.07120594833406481;0.49185124044408435;0.0866578532133388;0.35294117647058826;1.0
0.12957792468272017;0.3873298041330497;0.4543649026116566;0.4162525063995445;0.08348819018494022;0.36470588235294116;1.0
0.18433045622897457;0.43709684752406525;0.4632623995509029;0.5013298863448397;0.05564350262475593;0.8745098039215686;1.0
0.17952210606731292;0.4582853507858045;0.44116694881844104;0.5489938793187429;0.07642432248545075;0.3803921568627451;1.0
0.1419787020727962;0.4039669776035532;0.45468267035948673;0.4767463135655214;0.06294671957553277;0.3607843137254902;1.0
0.06709933697263544;0.48571851365562557;0.4498259768081897;0.5415182139597615;0.033717250948163496;0.35294117647058826;1.0
0.11992515767247838;0.3757739608516072;0.43221257290332743;0.4231013840606504;0.07688171931965408;0.3843137254901961;1.0
0.17043646235055623;0.41529747142448187;0.4500101417857578;0.47980354098778716;0.08801349234383338;0.38823529411764707;1.0
0.18100132124853047;0.41608358869481754;0.43669096311328964;0.4815948028825999;0.08769246205468109;0.3803921568627451;1.0
0.16205764167093206;0.4453959251792254;0.30996827140462374;0.5127869796386694;0.07137061596254296;0.38823529411764707;1.0
0.1382322328421187;0.45852638442257937;0.43708989232052237;0.5004560941134887;0.0586717228476191;0.3764705882352941;1.0
0.34676000991597583;0.5080198072957066;0.47015902397271103;0.45800932612952394;0.15623597568887798;0.592156862745098;1.0
0.13695978853034843;0.4744040931186743;0.4286028689901785;0.5363891595260991;0.05128541013412208;0.34901960784313724;1.0
0.21205197883383498;0.42855448117575323;0.4112915896143779;0.5266347271940384;0.08741513834586384;0.41568627450980394;1.0
0.16884956856619995;0.4962684085572641;0.4680222493121081;0.6443599121378559;0.05679292154573761;0.3764705882352941;1.0
0.19259554552774694;0.4132659273181109;0.45412604363342174;0.49341549365613613;0.09020413255506622;0.396078431372549;1.0
0.1899146021248892;0.46919677862415826;0.4454674056724102;0.5522313150549705;0.07719730488230565;0.39215686274509803;1.0
0.13397605174825772;0.5880589629334699;0.4683421761722456;0.4885441049294798;0.028922665715845952;0.2980392156862745;1.0
0.21663089859788554;0.4672714531661115;0.4323916922650718;0.5595776181315755;0.08535115586667369;0.3764705882352941;1.0
0.24615897783092341;0.49551632338854584;0.4857841886783702;0.6381932139835118;0.08113633080595824;0.3764705882352941;1.0
0.16164084688782598;0.4355858445544323;0.43675026340085127;0.5173909779920607;0.0722879439023087;0.37254901960784315;1.0
0.24368891422611333;0.63238487080753;0.43783345859435857;0.5006967394733779;0.11161728335669817;0.0196078431372549;1.0
0.45431097048925856;0.5498638337300172;0.4407929960485308;0.6599512921687392;0.15278077870809956;0.2784313725490196;1.0
0.12008934783288139;0.38716836779391656;0.4543649026116566;0.4328563551740401;0.05237448123729338;0.7529411764705882;1.0
0.08003200512684222;0.44655974656310293;0.4671140005749391;0.48835417392888536;0.06940181344665562;0.3764705882352941;1.0
0.20938829018457636;0.39327239167643097;0.47866946226555374;0.44090547998493507;0.10367112046702581;0.3764705882352941;1.0
0.5837347441454217;0.5206209389122989;0.5998427799174536;0.4754321343896894;0.3539854559120387;0.16862745098039217;1.0
0.1806993971814274;0.4946788885353527;0.3945409429280396;0.5598746366164383;0.07878648281609414;0.34901960784313724;1.0
0.17936223471635282;0.8991458790066045;0.4454674056724102;0.5518685010019004;0.19673657039078224;0.13725490196078433;1.0
0.4706009861219759;0.2654493237606693;0.47922099144484187;0.2638659696106942;0.19289481529249444;0.5843137254901961;1.0
0.2226347797548202;0.45251342626473867;0.4498259768081897;0.612743987747026;0.08228053260756607;0.39215686274509803;1.0
0.09705055012787839;0.456312042067525;0.3978448968868466;0.4839886503451722;0.038019801352280815;0.34901960784313724;1.0
0.21727109416056328;0.4055929699615842;0.45424384823153074;0.46855551388713723;0.09500401562710047;0.35294117647058826;1.0
0.15003791350949652;0.4260689318204523;0.45412604363342174;0.4479183219423445;0.08840400419509044;0.38823529411764707;1.0
0.2708016669195699;0.4569667971603954;0.4335216921891629;0.296743182820279;0.08054253272191614;0.45098039215686275;1.0
0.14087455769011223;0.43652674084308773;0.4454674056724102;0.45539702535072185;0.07394502362230847;0.39215686274509803;1.0
0.24988984029273867;0.6123096868892347;0.44968353984296827;0.48874285109935517;0.07433362566030524;0.17254901960784313;1.0
0.1925566940734304;0.5207750807605906;0.43680876771139854;0.6233863262142312;0.07463732025501962;0.3568627450980392;1.0
0.1760698848188694;0.46540549344925436;0.42791452055416895;0.5555660334339297;0.06252595161871731;0.3568627450980392;1.0
0.3394326858965359;0.5300943191219936;0.4274235307606518;0.8013548280341813;0.09496405772555362;0.35294117647058826;1.0
0.12766633723224255;0.44380477318308964;0.43697966188168186;0.4509322047937944;0.07429878741491126;0.40784313725490196;1.0
0.16038955153833104;0.4738584605806214;0.05229898881217782;0.5197156327819787;0.037500543350521644;0.8666666666666667;1.0
0.14278063071580188;0.44783621127986367;0.432651474650648;0.5248274953369918;0.06685731482260189;0.39215686274509803;1.0
0.1353650589385803;0.4257358349783675;0.41556356662163196;0.4826818726491186;0.07218033093037515;0.4117647058823529;1.0
0.2365539614424182;0.5435754447091637;0.2818460089474923;0.7502753890062157;0.07013033294951522;0.396078431372549;1.0
0.13386210234303555;0.44078770031445974;0.4163352785971359;0.2504543213010443;0.11151342520112477;0.4627450980392157;1.0
0.22771935289301357;0.48280001352191215;0.07008854469036478;0.6244624861723941;0.08480780180296103;0.39215686274509803;1.0
0.1738900281368365;0.46784144855085574;0.4411380866919044;0.5311183958247324;0.06406096694181053;0.34901960784313724;1.0
0.5095719354423178;0.5301155255427796;0.24936657313142085;0.5535246095578049;0.2836077949057949;0.10196078431372549;1.0
0.20894820148826196;0.4375137882611064;0.4680222493121081;0.5044900598125507;0.11468323581478654;0.37254901960784315;1.0
0.2499019408860425;0.4673987045300607;0.45854311907974854;0.6402715428924232;0.09359288539450136;0.37254901960784315;1.0
0.22616330179034097;0.43584989044086114;0.46786561845349917;0.5246198689179321;0.08867519359949837;0.3607843137254902;1.0
0.18248203854216904;0.413845439441858;0.4454674056724102;0.47812510523707014;0.10937901820760951;0.3764705882352941;1.0
0.415594860980775;0.4980442413345285;0.44068912027911117;0.2703875080816882;0.21118635544246778;0.1568627450980392;1.0
0.29153312121166;0.5613769553327398;0.5242544014703169;0.6562942257719196;0.08023062142050504;0.4745098039215686;1.0
0.30261687948606975;0.5037755485292812;0.45854311907974854;0.7081589131044426;0.09519753625780457;0.3686274509803922;1.0
0.15430207179074285;0.3960581228087685;0.4369234516579021;0.4250070091194799;0.08227136615812909;0.3843137254901961;1.0
0.23170699458969665;0.4925096374223497;0.5223629918029828;0.31084467980475444;0.11480480509965076;0.4235294117647059;1.0
0.1585075766810102;0.3916615326583862;0.4320284780037568;0.46449634556381575;0.08219358030616294;0.37254901960784315;1.0
0.32052195012236123;0.5504223090370719;0.19910957584704675;0.49826233336682213;0.11116980969500452;0.26666666666666666;1.0
0.08860344623469349;0.5454232683948554;0.7706238995090956;0.45377091839462563;0.023656472230858337;0.2235294117647059;1.0
0.40650266018927794;0.6042949959247592;0.3840323077585664;0.45896795942952207;0.22341320081340035;0.0392156862745098;1.0
0.5728037082657177;0.409612122456385;0.530906945817491;0.11497638007734647;0.3090913826863905;0.5137254901960784;1.0
0.18430525831787858;0.45177632539611345;0.36269312551858085;0.2275927684367266;0.12864371893065837;0.1568627450980392;1.0
0.2906663530326087;0.6236075461609272;0.4535307622736022;0.5083833046390135;0.0720932709933172;0.37254901960784315;1.0
0.4851608876610984;0.6504373869783004;0.4735138634156867;0.6102906537629044;0.18921300468424665;0.16862745098039217;1.0
0.06636407605353781;0.48496463817157903;0.4038500812791613;0.502010933051504;0.05971172926150192;0.3607843137254902;1.0
0.3009477079749951;0.491728906582201;0.7170752069757194;0.5412712029926563;0.1178886249977416;0.2823529411764706;1.0
0.1676891824880693;0.43323033355599655;0.45430396085179875;0.5242605665165835;0.07282845864451724;0.3843137254901961;1.0
0.5024120253989732;0.5740168050397698;0.13553213631409292;0.5037826336522637;0.29392498019191654;0.06274509803921569;1.0
0.3314004837738457;0.7158097751158852;0.4373019812661398;0.6970571301251435;0.06943588291992085;0.27058823529411763;1.0
0.1445644223761619;0.45388332576365803;0.42259263517257467;0.4881293034780155;0.0836951668899799;0.39215686274509803;1.0
0.27310901740997906;0.43833288853257685;0.38956146657081225;0.58987424054885;0.10951412712597987;0.3607843137254902;1.0
0.1705977505575262;0.4047719576467285;0.4365081205599747;0.4503996848789581;0.08741902092996212;0.3843137254901961;1.0
0.17521045576171543;0.43080370086183906;0.40302868671876824;0.5340924272776989;0.07779526792322332;0.39215686274509803;1.0
0.2885599934528877;0.5135342551353714;0.4368664919644722;0.6900908643060156;0.09283866331047039;0.3803921568627451;1.0
0.21249079622010095;0.5341583811876914;0.44101865720278705;0.6969486862028994;0.06637680635022516;0.35294117647058826;1.0
0.2708341917551759;0.4966265053559623;0.45412604363342174;0.6615903546850661;0.09132740418095595;0.3843137254901961;1.0
0.07800460458712591;0.42140013386254954;0.04456803910675193;0.41966835805924757;0.04651650951663039;0.3843137254901961;1.0
0.4756692750656566;0.4995053455824138;0.5972482358124949;0.3932947117143174;0.16812393854195923;0.6352941176470588;1.0
0.2570863242131431;0.5574893959896229;0.4499161541420334;0.7312506875910563;0.0797653069672853;0.3803921568627451;1.0
0.0;0.68041606098321;0.5398676780766091;0.5478079100810599;0.004931442014959437;0.20784313725490197;1.0
0.23813553587652456;0.5324217367412748;0.9154459047133151;0.7099145500280956;0.07790005220497027;0.3568627450980392;1.0
0.16257982491397854;0.42843350875345654;0.46338597589728125;0.469491619940467;0.07609121020303165;0.40784313725490196;1.0
0.19218733603752103;0.47335825587871094;0.4723452610097169;0.5647768743791858;0.07735066314196315;0.37254901960784315;1.0
0.19466988682668518;0.5476941864075088;0.40801181371848594;0.6881540204299421;0.06048722441579301;0.3686274509803922;1.0
0.2609073931281687;0.5443729359898716;0.4276724117939175;0.7431942264605678;0.07545228104952599;0.3803921568627451;1.0
0.1841616497900285;0.3877489249469241;0.05085844574815394;0.404225386202071;0.08753786152682623;0.396078431372549;1.0
0.20288488929170465;0.45117430766816624;0.05393327419164465;0.5617950974174665;0.07784083131944113;0.3333333333333333;1.0
0.3889687625571212;0.574271442988375;0.21715663449259193;0.7169243166842317;0.12839462739264873;0.34509803921568627;1.0
0.26189984422068135;0.7689131210132084;0.33163178306734675;0.7012100674946439;0.03313402108421577;0.2549019607843137;1.0
0.1529990133903568;0.5026330224553455;0.355548762362148;0.5728895041478842;0.06701011944263621;0.3411764705882353;1.0
0.1786474893507944;0.4418797127874034;0.054891666743439024;0.556134091040059;0.07832603639261103;0.35294117647058826;1.0
0.28783083523585457;0.4571243645684106;0.6315448656999176;0.5757052873708159;0.11465010997657533;0.3607843137254902;1.0
0.39077317658502797;0.5233573098558376;0.42296501515745594;0.4141139449709476;0.22699609800314044;0.03529411764705882;1.0
0.15055049148276184;0.46052817984607414;0.4540683193803484;0.46676267856264514;0.0700624740500358;0.3843137254901961;1.0
0.24973848698995413;0.4917480198245302;0.32558741372548494;0.6486755911527701;0.0910200213460679;0.3686274509803922;1.0
0.4503983678324391;0.5463788599693312;0.08022312492435271;0.55533850292295;0.233079376567552;0.09411764705882353;1.0
0.20942010682517453;0.5399631828809139;0.43669096311328964;0.6976963114245219;0.07259592566845623;0.3764705882352941;1.0
0.20062276992048467;0.36837887396850266;0.051747105145542226;0.3910321545484868;0.10860429362240392;0.3607843137254902;1.0
0.17615139192528123;0.4250201277894518;0.4323916922650718;0.5223887290339321;0.06851096297452873;0.3686274509803922;1.0
0.4165346034609317;0.6358265117241891;0.6297726994139415;0.5845042410879228;0.13127223665256088;0.38823529411764707;1.0
0.1788367174942087;0.44494589376974425;0.1080795899909557;0.513552854964735;0.08486842661220476;0.3607843137254902;1.0
0.1749719557953656;0.4225280522914588;0.45845536261392755;0.49686609464930354;0.07881094066984738;0.38823529411764707;1.0
0.22395916869446023;0.4778354069564004;0.4454674056724102;0.5422324259328903;0.08410458969432312;0.403921568627451;1.0
0.056897247824999664;0.4349577468908618;0.4369234516579021;0.5235310935084052;0.0679535179939971;0.3843137254901961;1.0
0.23705604032395516;0.4852814431773281;0.43680876771139854;0.6228503175666523;0.08067379917381337;0.4;1.0
0.28937283689522564;0.5648170289129879;0.4101211849548563;0.826909159021579;0.07689120765663432;0.36470588235294116;1.0
0.27984498622686976;0.5292233901656043;0.4454674056724102;0.7231114157625647;0.08126365053690608;0.3764705882352941;1.0
0.07023193194380832;0.4391613295190599;0.45900031185622897;0.43780211285815657;0.04105230035682529;0.35294117647058826;1.0
0.2132227936855249;0.5455257266742743;0.46338597589728125;0.7421644966351483;0.07637659225634398;0.37254901960784315;1.0
0.10401835525854408;0.44367011635815085;0.4409246695590626;0.4572553678049315;0.05590518626157014;0.3333333333333333;1.0
0.2316363129048609;0.5274904623129119;0.4119573522648591;0.7324233426853163;0.07311186978414264;0.403921568627451;1.0
0.14103123853739236;0.4279463069454558;0.4115164305094966;0.45439117205986024;0.07059613715646466;0.3764705882352941;1.0
0.2366342006141075;0.4711732230823914;0.05602443791271172;0.6199003502505933;0.09043245006883298;0.33725490196078434;1.0
0.21270642820156618;0.44595204117625986;0.4498556269519705;0.5175383498945885;0.085552691050091;0.3607843137254902;1.0
0.6086927880458535;0.34680206259592755;0.43598110378865484;0.4359701574409027;0.3807697855744129;0.40784313725490196;1.0
0.26045094906053207;0.4343684803683031;0.4743942454973142;0.5087015862445312;0.13696417765809293;0.6196078431372549;1.0
0.13180887171698777;0.44242865530776276;0.057405072148024996;0.5247187074872538;0.07297276763430047;0.4;1.0
0.4226185840618837;0.6275139678905486;0.4454674056724102;0.5046372418878438;0.19620827042508884;0.12941176470588237;1.0
0.28227327510304834;0.5118209691028932;0.4671140005749391;0.6890719876552152;0.09581074110685972;0.38823529411764707;1.0
0.07489007625771527;0.5313379162354807;0.5529788270216368;0.43633024269722526;0.0;0.45098039215686275;1.0
0.10098529847143574;0.5642184394477903;0.32298603957835453;0.4807052562674951;0.04591793209787643;0.0;1.0
0.12528776521587787;0.48393682884556855;0.042299575612810475;0.5969289096756802;0.049652935827148297;0.37254901960784315;1.0
0.14048253747423378;0.4604292698340389;0.47597740362286645;0.46778156738867843;0.0725181897191739;0.40784313725490196;1.0
0.14909834841763892;0.5199881960928685;0.4543649026116566;0.5899966979147337;0.0336363371885959;0.3843137254901961;1.0
0.14362513557155895;0.47252572268369264;0.47331209033839694;0.5324164365430162;0.05005176322608086;0.3568627450980392;1.0
0.062114757412698486;0.4395647615195634;0.42779429531363317;0.5297462818978996;0.050667529169270406;0.396078431372549;1.0
0.09568692146991799;0.5656443132758199;0.61681373344774;0.46399493197630853;0.01931743051926091;0.29411764705882354;1.0
0.3049153307353046;0.4989187856037819;0.4375524544074364;0.35093626522312954;0.07622973353740298;0.37254901960784315;1.0
0.15943775599487334;0.505065972369382;0.9500031472898522;0.6236089961929726;0.09958137509035458;0.3843137254901961;1.0
0.23663691703699946;0.6773086446739238;0.4572674397229351;0.6076401708948584;0.04267829165832864;0.4196078431372549;1.0
0.13853203439829137;0.4081071869503772;0.3928087503176871;0.45888953787950326;0.07408215551502927;0.38823529411764707;1.0
0.18852554908011704;0.5231756388099478;0.428265578256534;0.670715366559499;0.059008800779202224;0.396078431372549;1.0
0.11000069425073443;0.4220418806248419;0.4454674056724102;0.4377655159398902;0.05217163783272331;0.3607843137254902;1.0
0.16821343822225285;0.48852779678888636;0.40542866944580164;0.5788030970441165;0.07026494996650208;0.39215686274509803;1.0
0.15941914048234582;0.5104854306016494;0.4276724117939175;0.675779544723565;0.05276161760770415;0.3607843137254902;1.0
0.23679960464141608;0.4864981365231497;0.458722238441493;0.6253887394865779;0.08453616389318022;0.36470588235294116;1.0
0.1931288962990202;0.49560946235096703;0.0521329373215812;0.6018788227100031;0.07707402525207836;0.34509803921568627;1.0
0.17611422937768142;0.41246742557076327;0.4541845479439692;0.5067311490308534;0.0767373025793528;0.3843137254901961;1.0
0.1539047649027239;0.43255226424123633;0.05395182503649834;0.4658641382234928;0.07316749491339718;0.3411764705882353;1.0
0.32980232486485767;0.39345475564511456;0.6657347079488745;0.6343899268469113;0.23733286961841704;0.047058823529411764;1.0
0.12417044337804568;0.5408392457774079;0.47660864495977245;0.6645129057392023;0.03817793102071236;0.4117647058823529;1.0
0.2141931355893728;0.6516629995078052;0.43113254949251323;0.6251345198433511;0.004032820524658381;0.4588235294117647;1.0
0.2185367291582296;0.4733266397019947;0.032869874575616964;0.6127249327033849;0.0976567887613934;0.27058823529411763;1.0
0.1875119584058532;0.49528173829890015;0.39752312317883604;0.6403872781610129;0.0654794017911794;0.39215686274509803;1.0
0.30487291060985566;0.5524162072448705;0.41378993331058456;0.428497946867704;0.19630600631787426;0.10980392156862745;1.0
0.3238625685561347;0.4887480814060339;0.7529299751384226;0.3765344166926291;0.0920842434798449;0.42745098039215684;1.0
0.2033595926812216;0.4006532214466531;0.47557060365019366;0.44721202185585474;0.09424196818018232;0.403921568627451;1.0
0.2972218044573528;0.5219164035831979;0.47682490356593465;0.49871561267856546;0.13105751637883906;0.3411764705882353;1.0
0.19831934049883557;0.6540782962314295;0.4454674056724102;0.6131817590705333;0.00863849950589058;0.47843137254901963;1.0
0.16659008775604767;0.43620019555401035;0.46351128058416846;0.4999476378763298;0.08029410756615453;0.3843137254901961;1.0
0.5819397907728392;0.5300135701936135;0.9725355932625215;0.33008763710953554;0.3120932647993975;0.6039215686274509;1.0
0.33999773238998665;0.535760124283669;0.7541787726894752;0.513604210162954;0.12993244571507256;0.5254901960784314;1.0
0.11938281839478697;0.4628024363706154;0.4595742720919906;0.48109211029002324;0.048969197110138155;0.3686274509803922;1.0
0.1786231351477966;0.42705765516707217;0.45845536261392755;0.4785905227056982;0.07668062075860424;0.3607843137254902;1.0
0.26413518671228303;0.49613590550775977;0.42923926660082884;0.3442292139441175;0.07007773454643572;0.43529411764705883;1.0
0.13828313598600048;0.4862623411677309;0.07851225495948111;0.6230755498705194;0.05244010266177764;0.3607843137254902;1.0
0.1257711031736048;0.5314916185435276;0.38918625892583525;0.6902137279058699;0.048043855925621964;0.3803921568627451;1.0
0.14108156080715853;0.3916663467351148;0.43290113564457855;0.4118142817512959;0.08476688400349501;0.396078431372549;1.0
0.1613023541101295;0.5170741502608511;0.9615222281486979;0.46227904280379706;0.046074926681055735;0.30980392156862746;1.0
0.07571828749488627;0.4361434965639347;0.4499161541420334;0.4405204122156199;0.06377564279521533;0.3686274509803922;1.0
0.21120027595455443;0.46135283668791466;0.4499783744003499;0.5463269637365732;0.09233195984290514;0.3803921568627451;1.0
0.09814760804921255;0.5033408671689831;0.487537092287325;0.5909227996113743;0.044661541606056;0.37254901960784315;1.0
0.18489532238107903;0.41601411139593014;0.4368664919644722;0.4805402256064097;0.08575381155453045;0.4;1.0
0.18308029339199247;0.4524889131001641;0.39136488396118646;0.5718639048989836;0.08041708627065279;0.403921568627451;1.0
0.16428992940126347;0.4233885453097659;0.4369234516579021;0.4904827668092887;0.07839518278900355;0.3764705882352941;1.0
0.21986434233038787;0.5034939786094094;0.5619381121340724;0.26428493791652563;0.17181095634023422;0.0;1.0
0.23987472475523625;0.6589278106707034;0.35920824203175167;0.6221013634445046;0.027572620875597642;0.38823529411764707;1.0
0.12626393623598717;0.4145922900726462;0.458722238441493;0.44197636028391907;0.05048856586903829;0.9803921568627451;1.0
0.15591583893477196;0.5394766721816924;0.4101211849548563;0.6458386363811391;0.030193122323386376;0.9882352941176471;1.0
0.20070689478129697;0.4546719369701892;0.4238208107698815;0.5506475783423143;0.08208587731435636;0.36470588235294116;1.0
0.2812782437997145;0.454478043562209;0.34667312659474253;0.24625043565473428;0.1674492811618508;0.06274509803921569;1.0
0.21516137986190698;0.42109977936028575;0.45448934312828937;0.5317785388733778;0.09043821223094323;0.3803921568627451;1.0
0.16580397005951955;0.4291600265160817;0.4101211849548563;0.5046594528818609;0.0740131826818304;0.3607843137254902;1.0
0.10960556194461626;0.46139740487971787;0.4672602613513075;0.5112404705990978;0.05647753731968844;0.39215686274509803;1.0
0.26453149273169646;0.6682489579849774;0.22741607223172527;0.5271264123498274;0.11512243446103754;0.4588235294117647;1.0
0.18045425087629302;0.44267824710654985;0.4149574077219541;0.5410246896645579;0.07785206650761063;0.3803921568627451;1.0
0.20863325637727406;0.4819249877193853;0.5719514307891473;0.3729669483236598;0.1391802070964678;0.43529411764705883;1.0
0.1284686356135451;0.47363937047786525;0.3840323077585664;0.5279406211348334;0.05701995482680466;0.3333333333333333;1.0
0.22242693304902883;0.46756041324122977;0.7500830994952189;0.5907826586300009;0.09009861403204077;0.36470588235294116;1.0
0.3189778104724833;0.5024823927359522;0.4454674056724102;0.38735257045182453;0.08730235447110933;0.4745098039215686;1.0
0.29148397968618156;0.6296348900246892;0.4353882099209202;0.576357226304495;0.08618931258993079;0.09411764705882353;1.0
0.227058394913069;0.40401324484540335;0.45881365108127975;0.5048643474625711;0.10034484287695475;0.403921568627451;1.0
0.15756462835660645;0.4957950865237143;0.4686713095607325;0.5590159873653392;0.04592846014308692;0.9568627450980393;1.0
0.1752061151199743;0.4884557066786266;0.41173833230794693;0.5746397977685467;0.06575082407721689;0.35294117647058826;1.0
0.10001585334464641;0.5579128342501903;0.4262116287143397;0.5005518133208303;0.01643619488367528;0.1607843137254902;1.0
0.15024401684557448;0.43024493050718204;0.43675026340085127;0.5083202291614854;0.06924468388732898;0.4;1.0
0.1964490259701151;0.4311042425037477;0.4369234516579021;0.45331502873324653;0.09502818862330531;0.4235294117647059;1.0
0.20427306767298198;0.42128727236477437;0.379306530995963;0.49739391681647865;0.0883971787468893;0.4117647058823529;1.0
0.10961521779326959;0.5083080025598812;0.458722238441493;0.6147782776073177;0.0427027704310268;0.3843137254901961;1.0
0.205897398706731;0.4157703670545357;0.41556356662163196;0.4457081398328193;0.0948879645282791;0.3764705882352941;1.0
0.2223280644221122;0.6377417156371924;0.8464559501641201;0.619560357122583;0.053550541006167365;0.09803921568627451;1.0
0.3923524921539121;0.6135226386771578;0.4598823448477255;0.5917646920297178;0.14679001367288397;0.396078431372549;1.0
0.23517638950294809;0.6125676490862698;0.5281684990179691;0.5521509550279146;0.027606212737785452;0.4470588235294118;1.0
0.13983926392137153;0.4312692201851898;0.416706388496184;0.4656800092322601;0.07389564240234592;0.4;1.0
0.11321108932870705;0.528516461738765;0.46786561845349917;0.6932161720505038;0.035544908815000546;0.3764705882352941;1.0
0.2420828233784268;0.6642877616421266;0.2117469244784393;0.6827747478276558;0.010071764899041723;0.4745098039215686;1.0
0.17909958898171424;0.4184516111578193;0.4365699087331637;0.5036785193841237;0.07776356278755593;0.3686274509803922;1.0
0.28009011006841833;0.5931557047783426;0.4415099300399234;0.4312166217907575;0.10947429300050128;0.19607843137254902;1.0
0.23522770940187043;0.45477699132865584;0.47404639109435653;0.5808472585269597;0.09197017008454465;0.3411764705882353;1.0
0.294797751712957;0.5437912714873072;0.4409877631161925;0.7798373216236394;0.08989093494893483;0.3764705882352941;1.0
0.1776752950068627;0.4362998800361829;0.4200041743002248;0.4985257432454037;0.08224353443974369;0.38823529411764707;1.0
0.22457537811563;0.5028912616592116;0.9349874943688888;0.6679928124322512;0.0750173389297289;0.403921568627451;1.0
0.13497517880790608;0.4077241383104041;0.432566035110503;0.45918102983214276;0.06829955428333279;0.37254901960784315;1.0
0.4763887628167984;0.5627549576426567;0.5386439708417399;0.4430404969402617;0.2788204789153486;0.11764705882352941;1.0
0.1685363987141249;0.5610009409948659;0.4930544282368221;0.518379381708896;0.03168665791985139;0.4235294117647059;1.0
0.21706208421523332;0.4182397766743246;0.41895774013424464;0.49992752250732386;0.10047833001981443;0.3607843137254902;1.0
0.16254570486031134;0.5379645154418766;0.4671140005749391;0.7000444695789307;0.04580134613651358;0.37254901960784315;1.0
0.129910129271818;0.4777870504882031;0.8463314195602408;0.5356223810104984;0.04733398937946382;0.3843137254901961;1.0
0.23024342819536778;0.44478875808702745;0.4630202907906513;0.537407355249108;0.09102979757167386;0.3607843137254902;1.0
0.22852340095255097;0.6358282567780568;0.6355322398433644;0.42407216333303466;0.09581980125133929;0.5137254901960784;1.0
0.2782825181501975;0.4995377285921235;0.41453946254455054;0.6736289678448029;0.1211676225856749;0.3137254901960784;1.0
0.18104526206172436;0.4311520125617881;0.4543649026116566;0.5145896296507412;0.08995412032632856;0.3607843137254902;1.0
0.19128380367792788;0.44248157975239877;0.45412604363342174;0.5019689680594147;0.09291150765768261;0.38823529411764707;1.0
0.14308751338031678;0.4170052183033498;0.4454674056724102;0.4789450120743319;0.07478826720531488;0.3764705882352941;1.0
0.3147806804603173;0.5447729043327318;0.4109101630958731;0.39734466024905235;0.13979009500375725;0.14901960784313725;1.0
0.13407517871627678;0.4203619409621937;0.3931645520430567;0.4833172920125365;0.07430009417877884;0.37254901960784315;1.0
0.45504977505795874;0.5474642606489557;0.4215759787059153;0.4003387505592738;0.2098725959698842;0.18823529411764706;1.0
0.31498724128592387;0.4936036928197917;0.4485538579599478;0.41426309045754667;0.12875761256703352;0.48627450980392156;1.0
0.2397565992919671;0.431508277170054;0.13030757124796255;0.5439373029782286;0.10129625727241799;0.3843137254901961;1.0
0.2310734111502033;0.5366662003295578;0.43290113564457855;0.7381111454016885;0.07060441343438342;0.3803921568627451;1.0
0.18906803878912268;0.5574542262546532;0.4230691928913213;0.7284617985163737;0.03269675994787968;0.996078431372549;1.0
0.1888067863076838;0.45363316901266465;0.678369609470516;0.5427874255225773;0.08059172237242031;0.3686274509803922;1.0
0.19949666124103846;0.6492310708772727;0.472833949288577;0.6202023143783105;0.04155600524180398;0.0784313725490196;1.0
0.1538546253273078;0.6355877879450761;0.5055669579794313;0.5495212313111075;0.015905863522535535;0.396078431372549;1.0
0.195787432230413;0.5173005653760534;0.957148882195509;0.6788339211536947;0.0702695817340476;0.39215686274509803;1.0
0.16475357265552398;0.4507528405907102;0.4498856832621045;0.5196984988261146;0.07285571200361945;0.3843137254901961;1.0
0.24536707796388996;0.6820039809192334;0.45267487526006794;0.5320240866121138;0.10790140378296208;0.07450980392156863;1.0
0.37745432559331;0.6937491248167729;0.9760882916863352;0.7097550287376863;0.10996638002304292;0.22745098039215686;1.0
0.08030620472579107;0.5283357519141006;0.20138742206876062;0.3779024797151858;0.06280998708818616;0.40784313725490196;1.0
0.5508795703734638;0.7194054395405736;0.46752103056455946;0.7847262310771924;0.18013034067558434;0.23529411764705882;1.0
0.018318017855366946;0.6328105491766622;0.490577092951806;0.44179899743292006;0.15867067054657863;0.3686274509803922;1.0
0.23043234218147393;0.4759436317713724;0.37711577355634557;0.6497886956893513;0.0827569699697197;0.39215686274509803;1.0
0.22127986096346;0.46490513376416076;0.44979672465291604;0.5506612458791024;0.11955890704365503;0.3803921568627451;1.0
0.8861265898107542;0.4231700866117286;0.1127171242114555;0.6687521939631185;0.502226554648983;0.16862745098039217;1.0
0.17964161968809153;0.4398875323219242;0.4366308504930217;0.5234497597268726;0.07955428802277603;0.3607843137254902;1.0
0.24829400849084507;0.6107759408622113;0.08388190786110995;0.5224813919600033;0.03916888784856396;0.2980392156862745;1.0
0.10038744645631721;0.4969104722982329;0.4498856832621045;0.5044395283830566;0.015455217055637044;0.8549019607843137;1.0
0.23576269172633593;0.4611738555116766;0.3495788406852622;0.5676302570837402;0.0889239192509982;0.3764705882352941;1.0
0.13856020297412597;0.4958697819254909;0.4454674056724102;0.5625911045288632;0.04847975841529337;0.3411764705882353;1.0
0.1799897229728204;0.4345062731433191;0.4675587936208814;0.5274881765667577;0.077909192970645;0.403921568627451;1.0
0.12136596098716344;0.5081236421168451;0.3899317045781077;0.6042652668184264;0.05301567220086883;0.35294117647058826;1.0
0.3299103796090377;0.4817377793904056;0.45028134991192775;0.24130797059101358;0.19460512357402032;0.12941176470588237;1.0
0.3176205031472864;0.6682064865080587;0.42992358571830513;0.6047005648883477;0.0847151545010376;0.21568627450980393;1.0
0.13643612568113087;0.48678845863690157;0.4499161541420334;0.6023126581539621;0.04759164114475553;0.3803921568627451;1.0
0.2268748525059297;0.4827500808902267;0.4586320695110909;0.6611293982758216;0.08445856988088607;0.38823529411764707;1.0
0.18762428477872573;0.4679602626497556;0.4499161541420334;0.545886266088951;0.08854072246340856;0.3607843137254902;1.0
0.11960111549816811;0.4222303965763915;0.4500101417857578;0.47733119484738434;0.06366671235486876;0.3568627450980392;1.0
0.13300930803037872;0.43975267801597856;0.03830781491915106;0.46697684852768295;0.06127500908516891;0.4;1.0
0.15830949049555093;0.4232302354101705;0.39752312317883604;0.4789230991137637;0.07173301095001225;0.3411764705882353;1.0
0.3235349190044038;0.6091876869176258;0.48561689912232886;0.5729609868522627;0.11351338486224644;0.12941176470588237;1.0
0.3658619138383923;0.5538196441478566;0.5308874390731656;0.5284152885147178;0.15142546226337802;0.5803921568627451;1.0
0.27556806964381764;0.4504573504789873;0.4698096142797823;0.3427436230254367;0.07642557534888036;0.39215686274509803;1.0
0.23161766224434155;0.46730679363474453;0.4497393826796643;0.5863468695261408;0.09032106477486324;0.3803921568627451;1.0
0.284736902739528;0.557677736156332;0.4454674056724102;0.7900658176427965;0.0788550602980909;0.3686274509803922;1.0
0.06480882424750123;0.48734997740921443;0.5310959713487854;0.5188352197936462;0.011070599659710616;0.058823529411764705;1.0
0.10503927709527035;0.6300236410048164;0.5565625410666112;0.5190005626531106;0.04112152578691947;0.23137254901960785;1.0
0.10324348166885282;0.655655807777869;0.46064548868641864;0.5041985139247692;0.07893978821738842;0.3607843137254902;1.0
0.2014138268004099;0.4413479076885499;0.05062697159892814;0.59370972246489;0.0970495341193369;0.3764705882352941;1.0
0.45785181391481616;0.6245691981260331;0.339910737438624;0.5637188432003539;0.17512507013044099;0.2;1.0
0.11224545850462887;0.4426354071463965;0.44107918439284993;0.4630676683564621;0.060690395579547377;0.3411764705882353;1.0
0.12068222407470171;0.7438824992029689;0.4391120507158057;0.6152325936776739;0.12113454027480378;0.2784313725490196;1.0
0.23490447351006905;0.5241520391076128;0.4454674056724102;0.6890853436602236;0.0782977958668468;0.38823529411764707;1.0
0.08165054987262263;0.4366908039306968;0.4194914917893755;0.4334503879327253;0.0413399696107788;0.37254901960784315;1.0
0.12380612011870423;0.5091647118787573;0.45412604363342174;0.5707394005280677;0.045349070556544566;0.37254901960784315;1.0
0.43778386597274377;0.5810449021824711;0.5442616847500779;0.46726729656227906;0.173689800276722;0.23137254901960785;1.0
0.7833605668229445;0.28137797112695045;0.4514960835050771;0.3875728913125696;0.5188244277881189;0.16862745098039217;1.0
0.14028389757712512;0.39960182115802706;0.4454674056724102;0.45340407982015846;0.08812428736743223;0.37254901960784315;1.0
0.07579149937283819;0.4493104915628459;0.45424384823153074;0.45611274834890997;0.03738216922041918;0.3764705882352941;1.0
0.6149221774786403;0.10977120983701465;0.4397588346273184;0.007485763498735044;0.509234370062011;0.17647058823529413;1.0
0.1466542357473867;0.4275397347449425;0.42410752063614005;0.5048671691675402;0.06378865846759213;0.403921568627451;1.0
0.17271526789136088;0.5507943662957548;0.3864118361988913;0.6940071185729428;0.047443285830760185;0.3333333333333333;1.0
0.15841074823850473;0.48801594207939347;0.4200041743002248;0.5882685615793772;0.05139474890218903;0.3843137254901961;1.0
0.13964571664389785;0.4686298729750457;0.7466574904816405;0.5271145969073714;0.05926665857119936;0.34509803921568627;1.0
0.24696138109408583;0.8782565707422163;0.6087758937978176;0.5037913538906368;0.2179003830504408;0.49019607843137253;1.0
0.32506417262598436;0.7209554705379994;0.9703761099068694;0.7472700735586862;0.049425990233403855;0.37254901960784315;1.0
0.22101341030727667;0.39873765582703846;0.04642501387388546;0.5062487309525622;0.1751543522521495;0.07450980392156863;1.0
0.07225437398117537;0.4045994756891913;0.43675026340085127;0.407927798084575;0.05373624264591341;0.34509803921568627;1.0
0.14137921776072843;0.4611052962541105;0.04762057235471381;0.516510384609445;0.038099924693928054;0.8352941176470589;1.0
0.2370452693002417;0.45212527349250153;0.06300874283991556;0.5376178093571767;0.10087472852690114;0.3607843137254902;1.0
0.23886342506484654;0.4702212030750488;0.8504009342578184;0.5856038215195498;0.08394993300656452;0.38823529411764707;1.0
0.21836770494998306;0.4931587197164594;0.44968353984296827;0.31002533445241404;0.12119951454817367;0.34509803921568627;1.0
0.31422719793360504;0.4746330948922119;0.4029778619056499;0.37096426255102943;0.0822899541524768;0.43137254901960786;1.0
0.24029164792975305;0.49312819816951453;0.4622224323761858;0.3012448498754429;0.05947797640133009;0.4117647058823529;1.0
0.19599215960761296;0.4116314674709979;0.44116694881844104;0.4344755659043077;0.10615990609740703;0.3686274509803922;1.0
0.1869794402848225;0.4462397998420769;0.4723452610097169;0.5100165680700263;0.09301972271445164;0.39215686274509803;1.0
0.3322500295286945;0.5912432695806786;0.4375035966835786;0.4850149624020404;0.1613137424260448;0.4823529411764706;1.0
0.10733699806007643;0.4035117595935058;0.29205929567702255;0.3838778022080185;0.06313521313582704;0.403921568627451;1.0
0.18520853776039212;0.5145465488500559;0.41652202300146457;0.6330714667908489;0.06198147841268041;0.403921568627451;1.0
0.19260207764809095;0.4654392296412566;0.09859093301735833;0.22139256592467774;0.10296036045059268;0.12156862745098039;1.0
0.24063748737026935;0.5247073178692271;0.43680876771139854;0.6866300485063921;0.07583196210136199;0.39215686274509803;1.0
0.1900504504916264;0.5773578960953643;0.5396125422052466;0.4916308539383708;0.12633080836437402;0.4745098039215686;1.0
0.23183274137508492;0.5026619671271874;0.432651474650648;0.6292107152972649;0.06066524626653377;0.3254901960784314;1.0
0.38215905382436094;0.6920585053449492;0.36184741128967834;0.7380576170097457;0.1302346732138271;0.09019607843137255;1.0
0.286483225401272;0.6434818553264933;0.08200239745624312;0.5432176110630254;0.07007800035989452;0.32941176470588235;1.0
0.17952184344625913;0.5196402809002774;0.4454674056724102;0.6223186923754855;0.047300165944957964;0.34509803921568627;1.0
0.061604851172674724;0.5983481667761763;0.4194914917893755;0.5178248383845718;0.14157368511850532;0.34509803921568627;1.0
0.19995294754336726;0.49505505021759616;0.43675026340085127;0.5944667732001057;0.06334721767857472;0.3686274509803922;1.0
0.15290320164128304;0.4585015484830724;0.45424384823153074;0.5368488681823765;0.05660904719119411;0.41568627450980394;1.0
0.2134568879077574;0.46543686670571716;0.4699310823866056;0.5957522429663517;0.07843185730461714;0.36470588235294116;1.0
0.135332077358805;0.41972028109866455;0.03196193894461561;0.4723988046322297;0.06644586242701239;0.3764705882352941;1.0
0.13801263775472883;0.4134782437212732;0.4454674056724102;0.453356476734085;0.07893755520122468;0.3686274509803922;1.0
0.16125728753169083;0.4253367466967307;0.3993910822370274;0.49844689878445925;0.06453939022910171;0.39215686274509803;1.0
0.21859405653876027;0.5600279982920239;0.41453946254455054;0.7428025133801546;0.05887886162921213;0.40784313725490196;1.0
0.21558926934453382;0.49692286539345465;0.10864364891375726;0.6345677608998216;0.0838894350323811;0.39215686274509803;1.0
0.1436839524975043;0.44527335531634865;0.4245236222926907;0.47483484343165155;0.057121409066503565;0.3843137254901961;1.0
0.11678109912363996;0.3998196571009324;0.06591050930690857;0.4437778935257378;0.0691763358704812;0.39215686274509803;1.0
0.15350860559059015;0.4246031994458114;0.44119542866515615;0.48979160949374984;0.07732099730460683;0.38823529411764707;1.0
0.4908921319437074;0.4847062442811616;0.4245236222926907;0.4972188097966454;0.24872688339459886;0.40784313725490196;2.0
0.20321911835552886;0.9562573168909286;0.21158291010567165;0.4937315616020461;0.4462159961530744;0.3411764705882353;2.0
0.17673126569987577;0.8536745963992817;0.7142459590454767;0.4678219415039086;0.38481311514769817;0.33725490196078434;2.0
0.22570226625982467;0.5833232570681279;0.42378442993811233;0.39720966115165585;0.6337997907888796;0.21568627450980393;2.0
0.2923597709331888;0.6937034719502658;0.68736810370817;0.6761081820848396;0.47274791455834875;0.6745098039215687;2.0
0.20854617637619727;0.9601779092520419;0.7859202399449611;0.5703750272877416;0.4292379939352914;0.25882352941176473;2.0
0.8012667735812982;0.5720009534608016;0.49154372910779304;0.8261169350906179;0.43406707107986386;0.4627450980392157;2.0
0.2706504806454886;0.6735259604557889;0.6313346086829374;0.6777583510506711;0.49201437266793197;0.3254901960784314;2.0
0.34696927035712555;0.6815579310459888;0.27752056995527513;0.4269130823960591;0.29958192932746514;0.3176470588235294;2.0
0.6097102652037913;0.4468662018146484;0.5045986874144848;0.6308872531240092;0.3836373055832121;0.3607843137254902;2.0
0.3601951936786125;0.7198241031910673;0.4454674056724102;0.5314869941864063;0.2868043669847343;0.2823529411764706;2.0
0.28658113040339117;0.6256397274665934;0.7401283382591795;0.46703446303950025;0.6871871663279431;0.2235294117647059;2.0
0.30575593109398835;0.6765343481158129;0.4624428932538671;0.6173871631285041;0.6278756786363252;0.23137254901960785;2.0
0.3085821288211787;0.6999744358122743;0.8538135381364451;0.6664000220184557;0.5593816104068479;0.27058823529411763;2.0
0.3773906523933766;0.19947741408964387;0.5529788270216368;0.5975069610205295;0.2729122039062196;0.2980392156862745;2.0
0.3026479361435158;0.5645862943003317;0.43787836416540604;0.43054101128956335;0.5337273700397233;0.48627450980392156;2.0
0.01061779510490906;0.5505898072235602;0.3891518992513868;0.3310187445890405;0.12034033068719789;0.29411764705882354;2.0
0.27654751200807265;0.6671492661935826;0.6973513071191696;0.581462939453626;0.6009717109422424;0.27450980392156865;2.0
0.20013415804698245;0.6641930539470091;0.8644294393838291;0.48361066047809625;0.4762718817024014;0.29411764705882354;2.0
0.32204089355959997;0.7219478471779038;0.8724846003270849;0.7120712172963141;0.6192844078563843;0.23529411764705882;2.0
0.7712399775180648;0.3310607186891019;0.45854311907974854;0.4122591369532538;0.6231707916851734;0.38823529411764707;2.0
0.3411670496433379;0.7266530909626504;0.42834169253713517;0.733120003747967;0.5964710027549205;0.24313725490196078;2.0
0.0607215358994904;0.5939703433181082;0.4408266248947458;0.4504373578999863;0.1961747586394251;0.13725490196078433;2.0
0.22715529953738328;0.6433214685339355;0.15414613491966714;0.6039911406224913;0.40154993347836904;0.27058823529411763;2.0
0.48276802487553677;0.12178133480915271;0.43480511595182564;0.398417666958014;0.4531458161127509;0.01568627450980392;2.0
0.3695329573439795;0.6570119694098033;0.8061508837472349;0.4739369832353071;0.3064829466222716;0.3333333333333333;2.0
0.7305676677221624;0.44092363427183645;0.9185176596090072;0.6193908089438562;0.4721062796293514;0.5568627450980392;2.0
0.25772238756877536;0.6549371658046952;0.7852802910083585;0.6213623077284275;0.5257617407888424;0.39215686274509803;2.0
0.7993865567808933;0.37535153573173946;0.909277008517834;0.513003065470588;0.5678207032668666;0.47843137254901963;2.0
0.2694250031153175;0.32939920208204554;0.488471974212101;0.6151779259153769;0.18977731048237642;0.20784313725490197;2.0
0.5171075910529181;0.35282600381415963;0.574481111291482;0.6951447898013959;0.3185792704259294;0.23921568627450981;2.0
0.1899262207428619;0.6400953821128501;0.6860014330977985;0.5262720207007675;0.4298803509093578;0.23137254901960785;2.0
0.27252951372325634;0.5430829771880717;0.7004046682729714;0.5114307750885588;0.1681567535806395;0.6392156862745098;2.0
0.170493525152427;0.653750122237843;0.18546529485846427;0.5793232824175789;0.3629969016929965;0.3215686274509804;2.0
0.3094564874787816;0.6921297306105;0.5965277571884119;0.6712161288937327;0.5959926009374432;0.20784313725490197;2.0
0.4600711385364702;0.06597427881845207;0.4569864865312559;0.41599139131189444;0.42226472575706625;0.2;2.0
0.21212477895948523;0.6066647117308931;0.7194788158368107;0.42891354973504436;0.5561929065962319;0.2196078431372549;2.0
0.4509002504746099;0.1680499376363033;0.3731752430410338;0.398643115453059;0.43205802155874445;0.10588235294117647;2.0
0.18243676441219864;0.6350826845273271;0.666148744231349;0.5902687501808905;0.4041651989788263;0.48627450980392156;2.0
0.2759138648373116;0.6765971819424441;0.4571959243650531;0.6266675716847941;0.585977578517221;0.2;2.0
0.22377876419075476;0.9708004999310575;0.5479194660169674;0.5559090788478298;0.5130341191041196;0.45098039215686275;2.0
0.2194480843605237;0.9783975890655454;0.7956474637813197;0.5744626496863637;0.44943461489124564;0.34509803921568627;2.0
0.27253144260275225;0.6503967704847474;0.7842912790154274;0.55336416815084;0.57943708841574;0.20784313725490197;2.0
0.23940980195179687;0.7469391317969262;0.9089146977020861;0.6216780552265736;0.4750975956788588;0.27450980392156865;2.0
0.5662354198424917;0.40307229863005156;0.4644400094399207;0.37205836046145657;0.31989798141780323;0.32941176470588235;2.0
0.2117026156204837;0.6167805447889655;0.7518749565177061;0.5298807981318321;0.5088669814854312;0.3254901960784314;2.0
0.3598590810789272;0.3463448355404297;0.423965121402565;0.5562066732941354;0.24601295614456248;0.5294117647058824;2.0
0.2176491315028401;0.5776120928094383;0.7438115999165139;0.36632661106520986;0.6158855745932418;0.23137254901960785;2.0
0.06552205048404348;0.615622810275328;0.3483185309592536;0.45081621726062043;0.14005841834140667;0.27058823529411763;2.0
0.1443421136375022;0.8827335428239687;0.41221645061594836;0.595142600953108;0.28281419084281006;0.5333333333333333;2.0
0.1881169969456686;0.9185693058269062;0.4615941188747941;0.6127373872691909;0.4058017338114691;0.18823529411764706;2.0
0.3806668466052928;0.687414696080503;0.5401977489591413;0.4800032276530595;0.3210925889712651;0.3058823529411765;2.0
0.7145538328694497;0.3372087786501866;0.9549780546752666;0.48267809949141705;0.47313757640097515;0.4627450980392157;2.0
0.6308819420050531;0.746971482680494;0.4166697035252959;1.0;0.6612797633220062;0.27058823529411763;2.0
0.29581018154568767;0.3961584083219986;0.4281501297503872;0.48162673866778416;0.1973369719663468;0.4666666666666667;2.0
0.3636108857892412;0.715262221945518;0.8022098492402984;0.47581916866147916;0.33583897360844106;0.27450980392156865;2.0
0.20637231299972403;0.6325295919678755;0.672249310080935;0.5771719879890561;0.39161435779495535;0.36470588235294116;2.0
0.8800682938192433;0.3458850517829291;0.462901690215528;0.8407506431482313;0.9962002188059567;0.20784313725490197;2.0
0.2942956416879148;0.9605678422356331;0.6305280489784558;0.5870974733433241;0.5106495638921842;0.3843137254901961;2.0
0.2773901825079906;0.6858909541495187;0.8755130910693166;0.60492198951187;0.5827250535229274;0.2196078431372549;2.0
0.2788894174629012;0.5569189054011685;0.47772083207717825;0.4239658542042415;0.5640180339039249;0.44313725490196076;2.0
0.3978436905980336;0.7725872470645659;0.30966350502075557;0.5714301845261277;0.32982005129134695;0.3254901960784314;2.0
0.18459823817744736;0.9196855159398195;0.7413704002115659;0.5611536878785275;0.3706989835116462;0.4392156862745098;2.0
0.33149447261845744;0.7639815007482866;0.6055574053457109;0.3255709966098193;0.3811881027493769;0.3254901960784314;2.0
0.416668491896977;0.4291206762483323;0.47456824152633614;0.38933971708305465;0.25669836523477363;0.33725490196078434;2.0
0.36258002092484487;0.6880823608100677;0.3980358962536338;0.4402678486721235;0.3209165473964501;0.25882352941176473;2.0
0.3245064185375141;0.7269940492687432;0.9708324955645071;0.4952907741213723;0.27699543398030213;0.32941176470588235;2.0
0.4265819785579694;0.4554578427620188;0.4574131191556577;0.5564854476897882;0.22376520104526065;0.42745098039215684;2.0
0.327173331792016;0.6943378573235898;0.5798566823589434;0.6944600030325654;0.602955548272256;0.2196078431372549;2.0
0.23205088255197104;0.6436138261729563;0.9369481889831605;0.5395689462842423;0.48953964268373446;0.29411764705882354;2.0
0.2520009665587778;0.5805830033730309;0.7208015335179905;0.4322167450330072;0.6063441750484351;0.20784313725490197;2.0
0.33179961498535576;0.6537065721197557;0.7571297282353368;0.39859343345635834;0.3003998897254668;0.29411764705882354;2.0
0.2426599047120885;0.6703376856748285;0.5001342300872712;0.5640078513287804;0.48563393117601455;0.30196078431372547;2.0
0.24853178546099303;0.5967560687738407;0.4454674056724102;0.4379632559529994;0.6056158781102272;0.2196078431372549;2.0
0.20701368315958726;0.5854632033773683;0.2721052387467823;0.5678676170853085;0.4573893852824525;0.39215686274509803;2.0
0.4840434942257724;0.1075221361264743;0.7244159583622954;0.5139412724649984;0.357766736680313;0.21568627450980393;2.0
0.2273783041814398;0.9507761723311704;0.8103012453329005;0.5481152116219535;0.49394835867067344;0.403921568627451;2.0
0.21120644012908496;0.9670953277965901;0.3885495943698784;0.5716348519518527;0.5322451502819601;0.3215686274509804;2.0
0.12007205581441449;0.851314911673392;0.3365031272779237;0.5817878889844306;0.3500098584255862;0.0392156862745098;2.0
0.2783513832635975;0.6724368623204267;0.6110931088320296;0.6276476291408238;0.5152988523055847;0.47843137254901963;2.0
0.38762280396587523;0.6071115441572161;0.8893218974811439;0.5089122396972511;0.6637868902580891;0.48627450980392156;2.0
0.6601960165018201;0.32959508114643926;0.4474461434886538;0.5671678423122615;0.643750943697155;0.1803921568627451;2.0
0.6055946642013105;0.4445920518017788;0.4725332180400478;0.44930938197350523;0.324885561000369;0.37254901960784315;2.0
0.2179535777086643;0.6282507171859641;0.7106622450005026;0.5479641868305268;0.43256373710293783;0.3411764705882353;2.0
0.09007745688442316;0.6563336255831149;0.44955011787554555;0.4733837715689393;0.2442487244397149;0.4823529411764706;2.0
0.07437804143096126;0.793280402644221;0.6644356216313855;0.475014627790645;0.2289369281958567;0.5882352941176471;2.0
0.2018182427962621;0.6656053494079504;0.7902454120682058;0.5635520155330438;0.4329313455611571;0.30980392156862746;2.0
0.25165020839398144;0.6183374445564999;0.27593016431401446;0.5289246759970511;0.5152333682325511;0.2549019607843137;2.0
0.6273002122259514;0.4254026940947773;0.7240197246226793;0.6830801014624162;0.6379137155706819;0.09803921568627451;2.0
0.28185382427554473;0.9186654166914382;0.4653156680753444;0.6411690998540327;0.4323879096147828;0.24313725490196078;2.0
0.7682854523079343;0.5347168975662384;0.9626845137849056;0.7695367004951927;0.4447032615447056;0.7058823529411765;2.0
0.264346295311791;0.6439345791628979;0.7928119977237575;0.537933648077229;0.6090851659038956;0.21568627450980393;2.0
0.7851827510504509;0.5012539255150057;0.44194244103800934;0.606417982420784;0.4523868030997607;0.5725490196078431;2.0
0.5781470812494282;0.15730854183254703;0.7249971011803992;0.5457275144666002;0.4049930337375438;0.21176470588235294;2.0
0.28979562042192863;0.6221807191941141;0.5829410264140443;0.4822450813038048;0.7158591521953346;0.2196078431372549;2.0
0.07346382745102985;0.6018780914180264;0.48065296175033884;0.5021514605264696;0.24221915436746153;0.5372549019607843;2.0
0.35582166970572976;0.7887272525518785;0.7853422215506104;0.546421812175561;0.30365962595593643;0.3176470588235294;2.0
0.2151901905280992;0.9543934494616191;0.14806568168039377;0.4410812883485119;0.6755374922669037;0.16470588235294117;2.0
0.3370605089512355;0.6386386864296356;0.5965277571884119;0.4492581942086962;0.2587654131352631;0.3843137254901961;2.0
0.19315804316342314;0.6529437801561192;0.5761675649597052;0.5824300285151862;0.4089683759352206;0.30980392156862746;2.0
0.16011674696163866;0.8960799552097467;0.7000997193942626;0.5435510011140945;0.39778624330566786;0.29411764705882354;2.0
0.4059737823127908;0.6936142332137354;0.4992231163470235;0.523221597271502;0.347959773377011;0.28627450980392155;2.0
0.5002083476729456;0.16348058837231422;0.34918852088205804;0.6173936624310035;0.38055252231263953;0.2235294117647059;2.0
0.18532847670136215;0.8823753511942654;0.7827968194470476;0.5214710877569098;0.401698028725218;0.396078431372549;2.0
0.46695182591318607;0.23960151087049752;0.42986090902494184;0.5545718010084862;0.35343216599201716;0.21176470588235294;2.0
0.6939500810319886;0.11601674686118345;0.42192475866163065;0.27802701800863633;0.6390183791228494;0.2823529411764706;2.0
0.098707094939343;0.5895482790491098;0.6152222814869784;0.5232455657250027;0.2309253818468238;0.6;2.0
0.2988532716949216;0.7359675006256327;0.5701445161446224;0.6648592307093697;0.5802087570828457;0.21568627450980393;2.0
0.38344743782130064;0.6748578075040215;0.08222493354104266;0.3797155790623443;0.35482642331762726;0.33725490196078434;2.0
0.840044080844584;0.19847552080071815;0.4936968283337455;0.39204714760558573;0.9974242814549479;0.18823529411764706;2.0
0.6066024009478173;0.43980037532285504;0.4323916922650718;0.42726176192738563;0.3297865295640101;0.396078431372549;2.0
0.1321544270048863;0.8492906227105241;0.09413543947761611;0.5242838296928204;0.29412110421324966;0.7058823529411765;2.0
0.3890040634940308;0.8442860441915528;0.6909785618878083;0.5135007977572248;0.39656825787946054;0.2784313725490196;2.0
0.7619291860431935;0.36390225238947005;0.44182295071141947;0.5597273229369466;0.47910023845830546;0.4470588235294118;2.0
0.35326034133589695;0.804653617460333;0.9878180152812476;0.6036164365172269;0.2665931056551304;0.4235294117647059;2.0
0.260039379708765;0.6363294281406228;0.16437609175376192;0.3993350782573476;0.2466493820406203;0.28627450980392155;2.0
0.9024194502775246;0.15989238955874727;0.4604689993490465;0.7805227037330552;0.9037855165116341;0.17647058823529413;2.0
0.369456110807441;0.7502010355829136;0.5520903028782547;0.4861938862038683;0.37196788195498165;0.24313725490196078;2.0
0.1986787013921215;0.6854134098274947;0.7403558756588603;0.5149468145334731;0.44671919019319345;0.25098039215686274;2.0
0.1894862762640346;0.94330713140943;0.7211377168242733;0.5173476175317246;0.40357297431073647;0.30980392156862746;2.0
0.22347436428082593;0.7132644261567807;0.4215759787059153;0.6999461232759238;0.4804793522288048;0.21176470588235294;2.0
0.286784787644489;0.3744020939726377;0.2292016563687636;0.6393077227411877;0.2885607666229243;0.4980392156862745;2.0
0.34151272280086264;0.6490761963733025;0.5408648640527098;0.6991031661291237;0.34763681329952145;0.3333333333333333;2.0
0.2642086186411411;0.7639883007491219;0.17446228440157863;0.637594321157835;0.5664957181012644;0.2627450980392157;2.0
0.40941898497490997;0.7852323888450358;0.7451962167066177;0.6008074051533857;0.3475436921480496;0.2627450980392157;2.0
0.4156708973513452;0.7827355682473468;0.6244219005633809;0.6203946495873129;0.34336660088120685;0.27058823529411763;2.0
0.09120620014681116;0.6128760484765489;0.5261009716843301;0.46151591617158955;0.2051802517943074;0.3215686274509804;2.0
0.2372236640174403;0.681279001041337;0.7564825888612443;0.6436725163739137;0.4741758903537204;0.2901960784313726;2.0
0.6732406077029741;0.4406398433231308;0.18809157880607985;0.49089345293323106;0.4379060007412284;0.4980392156862745;2.0
0.30077515957578227;0.7153396676969065;0.662210431112451;0.7364893611868966;0.48737495839569256;0.30196078431372547;2.0
0.7719133242714487;0.34748767538517694;0.5572792838756058;0.3784096580089586;0.551660398246579;0.4588235294117647;2.0
0.09190003596600228;0.8142160094442357;0.41106375084065777;0.5151471683828827;0.18455037865034188;0.1803921568627451;2.0
0.19054566594262273;0.9417876126282493;0.76800166972009;0.5418184303879279;0.4294339089012167;0.27450980392156865;2.0
0.5217490075586435;0.07279365284953507;0.2611621119308789;0.6339864563163224;0.41143521212148165;0.20784313725490197;2.0
0.7538161604779591;0.3503453936519576;0.6106049488648223;0.3983708273402746;0.4946572722798271;0.5372549019607843;2.0
0.6838147260139839;0.434074583953056;0.9121127238690533;0.5005438873968902;0.42984090333753117;0.6313725490196078;2.0
0.8279390757776139;0.4340509036859559;0.92781594469867;0.6467591153534432;0.551101232259999;0.45098039215686275;2.0
0.20489333833097345;0.05315260786550491;0.637856264928921;0.5470116513116214;0.2815645164066801;0.20784313725490197;2.0
0.394618422759439;0.672906376583022;0.23553386102599141;0.44222876780381876;0.33432338102405124;0.3176470588235294;2.0
0.2314005254015213;0.9934212001544442;0.41881168137094904;0.4654430774562103;0.5752793724453068;0.21176470588235294;2.0
0.06496183040060256;0.10789822372132904;0.5888159674713791;0.3875764992963109;0.21278472968497983;0.20392156862745098;2.0
0.44073360832055614;0.785096761168853;0.14635741778461778;0.641433028080224;0.31709320957974263;0.3607843137254902;2.0
0.34667909627615745;0.7537605278901348;0.1499844024803423;0.7833379767122517;0.5953392954864627;0.24705882352941178;2.0
0.37094459252172857;0.29431601410160396;0.5627525925988394;0.5065438756854255;0.2259374343160726;0.34901960784313724;2.0
0.3468490331581485;0.702118996429291;0.9479418380835324;0.3830899989369178;0.3532156313701077;0.25882352941176473;2.0
0.27499776385151586;0.6478155738475254;0.801159397799758;0.5982907616609956;0.5565359425588949;0.35294117647058826;2.0
0.08425925919775418;0.6698958729497866;0.8956714825722966;0.45261678136534983;0.27458275285298545;0.3137254901960784;2.0
0.23110806040672466;0.6062884645480834;0.20411523529659542;0.4323179817105725;0.588138509203451;0.2196078431372549;2.0
0.22926101074215363;0.5743004388358042;0.7129348441509737;0.40763771229201795;0.6014549665009017;0.2196078431372549;2.0
0.05044406839350648;0.577334357912815;0.2917010704868884;0.4449944027536748;0.14270188298697456;0.2784313725490196;2.0
0.22850586905080897;0.9043692589107601;0.5601462551115852;0.558417133017465;0.44012221671075286;0.48627450980392156;2.0
0.32156681422338085;0.13209143965370532;0.7024014804222568;0.11996972584201741;0.3514144393188418;0.2196078431372549;2.0
0.10619976642592771;0.6412424826422711;0.5574214477385471;0.5612734025399455;0.20842454394685636;0.07450980392156863;2.0
0.3741554808170284;0.7169536120240712;0.8416512260774341;0.4789919030510183;0.33652363233664384;0.26666666666666666;2.0
0.35466520125225687;0.09535042244684733;0.1403674261678482;0.5822349919853271;0.3516438241085423;0.22745098039215686;2.0
0.11116129204777862;0.8333260015700764;0.5701806544375131;0.44018970354081777;0.3318699974254121;0.0196078431372549;2.0
0.5329027709112468;0.1845105434784069;0.16324992463069038;0.5547629635876812;0.37644744341308234;0.17647058823529413;2.0
0.3748112986023582;0.6780767161695086;0.5204753740555915;0.42749590029170886;0.32647647907593524;0.3411764705882353;2.0
