R_val;S_val;RR_l_0/RR_l_1;signal_mean;signal_std;seq_size;label
1.103922144224449;-0.5594217518047349;1.0150375939849623;-0.1266939042000538;0.2756188439045874;195.0;0.0
1.4912714970065746;-0.5736741374050816;1.0;-0.1983365327135474;0.2342425607621906;246.0;0.0
1.521624695876827;-0.4184554973137738;1.3270440251572326;-0.2036278606503642;0.3059605324955824;281.0;0.0
1.2649283744509996;-0.4558499964425276;0.9785714285714284;-0.2024533856587381;0.2623725260023384;193.0;0.0
1.1753290551309026;-0.535057672796983;1.051094890510949;-0.2658351306681851;0.2564514954638344;193.0;0.0
1.0746474400761734;-0.360126768464455;0.9818181818181818;-0.304840609644187;0.1832717887845193;218.0;0.0
1.6810382764994194;-0.4092882138202418;1.0282485875706215;-0.1536619525022093;0.2451810963913137;240.0;0.0
1.30702454578905;-0.5833797920178349;0.9846153846153848;-0.0362671347916942;0.2861130546028805;191.0;0.0
1.9282796372565556;-0.1020045483147551;1.0555555555555556;-0.007472035827681;0.2703152655971527;246.0;0.0
1.170705411798241;-0.5456941274574194;0.9662162162162162;-0.2629846317156413;0.2537939964020284;206.0;0.0
1.728073246289414;-0.5327115797673039;0.9887005649717514;-0.2657372132117597;0.2555060567529123;258.0;0.0
2.6471969221071583;-0.349310184957975;0.9473684210526316;0.4940210903044206;0.5165618579275962;156.0;0.0
1.2215425435549117;-0.326177708146824;1.01840490797546;-0.2577297480163358;0.1855573128484736;224.0;0.0
2.021909117046242;-0.934312776971625;1.018181818181818;-0.0483523340883772;0.4758997560069962;151.0;0.0
1.4374533921205084;-0.3728701437429553;1.083969465648855;-0.2284630563434417;0.2499004567947838;190.0;0.0
1.1767748393014463;-0.5504940346784775;1.042857142857143;-0.2553425111415332;0.2835832674771847;164.0;0.0
1.2116934739181149;-0.7558795382991974;0.9655172413793104;-0.2115472043462308;0.2836868160372748;193.0;0.0
1.7026401552981618;-1.3934629183664284;0.9910714285714286;-0.5651550244031648;0.4689443954242849;156.0;0.0
1.9202704787836573;-0.5034726936851447;1.0517241379310345;-0.2209735287082763;0.2993048276587999;236.0;0.0
1.6276512244281296;-0.4189157205759025;0.9528795811518324;-0.1325379855108886;0.2302219235043233;258.0;0.0
1.12684719292254;-0.5243063238994349;0.9602649006622516;-0.2741073059520703;0.2384948709599041;202.0;0.0
0.916187117759025;-0.4112726957841786;0.981132075471698;-0.2954457607187105;0.1439056761867152;231.0;0.0
1.5322875433336298;-0.7683878669721222;1.0170454545454546;-0.4560634323314331;0.263468125959268;247.0;0.0
1.808152033083627;-0.4613416530607874;0.9578313253012049;-0.1939141941464753;0.2672392613308368;245.0;0.0
1.6094440520464053;-0.480822476609389;0.9378238341968912;-0.1760988427012366;0.2488958231455917;244.0;0.0
1.8098380867843675;-0.421486473367465;1.0333333333333334;-0.2754318429699791;0.2866608089772533;230.0;0.0
1.8105777131338832;-0.4371074370990521;0.9942857142857144;-0.184132563913398;0.2684889612605551;248.0;0.0
0.8391790923166691;-0.4325189497196242;1.0121212121212122;-0.3279547621213555;0.1506904006620189;222.0;0.0
1.389447583795946;-0.3804804435263039;0.9932432432432432;-0.1151782392471394;0.2483895074673871;202.0;0.0
2.1525691309769965;-0.9676454810613336;1.128440366972477;-0.389900932026319;0.5726049535898456;226.0;0.0
1.0443005700244343;-0.4500973646521293;1.026143790849673;-0.3304527666168768;0.1720391735978637;214.0;0.0
1.8052651383399403;-0.4890405812651865;1.0;-0.1506405676857889;0.2546743040868351;260.0;0.0
1.6355784868497942;-0.5037377335737367;0.9456521739130436;-0.3135608157381953;0.2701666662730027;255.0;0.0
1.3881265977633086;-0.4443327882214771;1.048780487804878;-0.2057669019766581;0.2350769165580723;182.0;0.0
2.0140290778167738;-1.0996561303852883;2.22;-0.1438373200805218;0.4959558156705236;154.0;0.0
1.023909727278174;-0.3210108180386121;1.0301204819277108;-0.2831952101742246;0.1582539475687023;226.0;0.0
2.1806015437665254;-0.8029292683669176;0.982608695652174;-0.1552811683099019;0.468869700978395;156.0;0.0
1.660174715278882;-0.5095616172050295;0.9883040935672516;-0.1317252173572259;0.2440621780396069;259.0;0.0
0.9682217836959092;-0.4668441572032124;1.0;-0.3245142903277753;0.1678738172193352;187.0;0.0
1.1625645338482289;-0.3353189408238718;1.0060975609756098;-0.2243562990673998;0.1688176468303864;230.0;0.0
1.1089039278274628;-0.3568938641477797;1.0061728395061729;-0.2210173220134477;0.1667670206784656;207.0;0.0
1.827468083316641;-0.520514931801314;1.0481927710843373;-0.233016302592169;0.2772831464808661;215.0;0.0
1.193832848816989;-0.5097951280003302;1.0408163265306123;-0.2350415701308788;0.2544318871402187;205.0;0.0
0.9163597508242932;-0.4189634742386524;0.98159509202454;-0.280035083516768;0.1599035107375302;201.0;0.0
1.2056831161457997;-0.2513896219963885;1.0125786163522013;-0.2152360361975432;0.1961968817229994;213.0;0.0
2.1300185761170085;-0.3975372587938945;0.9681528662420382;-0.125824239391955;0.4173383987955877;261.0;0.0
1.1825386086200151;-0.5517270701951524;1.4947368421052631;-0.2639668756042537;0.2591302563644403;206.0;0.0
1.80769342154102;-0.5083102093641019;1.043956043956044;-0.3112016690332035;0.2718576020470086;241.0;0.0
1.642882180159263;-0.6482237322483904;0.4598214285714285;-0.440222765191772;0.3622374731752271;219.0;0.0
2.1288209496787345;-1.1076377599850895;0.986425339366516;-0.3316440979825155;0.5591322801462074;142.0;0.0
1.0964764959933198;-0.58;1.0;-0.3071057874484703;0.2519301506332274;213.0;0.0
1.8737832506960463;-0.4278230986037805;1.0377358490566038;-0.1507306243671788;0.2716913170615222;233.0;0.0
1.1478675860313334;-0.7033494572420389;1.0069444444444444;-0.2970816272333505;0.2685912138380057;196.0;0.0
2.076382464367929;-0.4753275056815259;1.8;-0.2611684618622668;0.4200875239091571;218.0;0.0
2.168747953291222;-0.914856986443186;1.02803738317757;-0.0778579096411581;0.469588273713711;153.0;0.0
1.2067651359277167;-0.4218824959638155;0.9863013698630136;-0.1831350580569425;0.2346044589703545;200.0;0.0
1.5509160195895515;-0.4958672683766525;1.0441988950276244;-0.207533451949247;0.2416908227611504;245.0;0.0
1.916768491428696;-0.3765698005900334;0.9508196721311476;-0.1470268981280642;0.2660477500462023;255.0;0.0
1.5331340295310336;-0.5695303614166909;0.9941520467836256;-0.2182744103787931;0.2287508384307974;261.0;0.0
1.3179816378098348;-0.4097920677211205;1.014388489208633;-0.1472419434907871;0.2607192105899836;197.0;0.0
1.3355936845070695;-0.6258171100071248;1.022222222222222;-0.3040778978329361;0.2422058378703177;235.0;0.0
1.2777123779742;-0.4967972704254356;1.013793103448276;-0.2222905064342367;0.2680966905806597;202.0;0.0
1.1507498732032648;-0.5070389597770006;0.9859154929577464;-0.257767151292361;0.2661000659841778;163.0;0.0
1.0916540215517954;-0.3748070422361149;1.024390243902439;-0.3188241896594677;0.1714339524787731;220.0;0.0
1.7274950767165966;-0.5671498333395801;0.9485714285714286;-0.2754254682833653;0.2785433124523452;246.0;0.0
1.3321807795038594;-0.4141195715110908;0.98;-0.1549908595185622;0.2596221845889991;208.0;0.0
2.0519707015568707;-0.3361740035696465;1.0542168674698795;-0.1288584861457629;0.3921862340107061;230.0;0.0
0.9694894359342126;-0.3592576939661928;0.968944099378882;-0.3113045226478929;0.1420744920078825;250.0;0.0
1.7772192790584596;-0.4913329797985152;0.9593023255813954;-0.2303623561187899;0.2804015250678223;241.0;0.0
1.18493982264691;-0.4388731328582321;1.013157894736842;-0.3207549682711784;0.2187685357282362;219.0;0.0
0.8582906853101108;-0.5528977545825382;1.0318471337579618;-0.4196659415188414;0.189842322165348;224.0;0.0
2.120489412497312;-0.0054732228590322;1.4044117647058822;0.161119230185925;0.3332482154146332;199.0;0.0
1.6517318484416978;-0.6028399616237773;1.0134228187919463;-0.4013876603532865;0.4327820173584418;259.0;0.0
1.2041454698095653;-0.322411069570224;0.9345238095238096;-0.2711632992737969;0.2026223053863269;234.0;0.0
1.9369732036753484;-0.332240924153712;1.0404624277456649;-0.1603450151768234;0.2847405010577636;223.0;0.0
1.801197695459952;-0.1213786019162532;1.5326086956521738;-0.3661403404424065;0.3563044377008103;214.0;0.0
1.4108193782788754;-0.3913301475965405;0.9848484848484848;0.1052668765578942;0.2829965594500789;174.0;0.0
1.7692445064389124;-0.4817750826174508;0.9502762430939228;-0.2063805903164187;0.2619268349628835;240.0;0.0
2.44136091188372;-0.8698485503051807;0.4953703703703703;-0.2974715317089482;0.6410043122426443;314.0;0.0
2.896772480654056;-0.4171876219408785;0.5186915887850467;-0.0101040219122698;0.7293186950923558;233.0;0.0
2.0326919712418228;-0.8813090646316604;2.0865384615384617;-0.4795250105299897;0.5990579581398817;301.0;0.0
1.0103532486106257;-0.3876162340094036;1.062111801242236;-0.2844328571305394;0.1530132486465957;219.0;0.0
1.277141141431849;-0.4198525949140503;1.0287769784172662;-0.1530682412383111;0.2564185615152831;197.0;0.0
1.701686634822686;-0.368439597680353;1.018867924528302;-0.1275033296284594;0.2335301437141686;246.0;0.0
1.0968420953807403;-0.272632660909445;1.0303030303030305;-0.2189607013313511;0.1579846534990967;220.0;0.0
0.9703438035154668;-0.4277882498408955;1.0121951219512195;-0.2708127094504889;0.1534220678303045;212.0;0.0
1.25832650796588;-0.4806494781201043;0.9803921568627452;-0.213885132648414;0.2593725047023568;205.0;0.0
1.1408539945028349;-0.5178185341722428;0.986206896551724;-0.2771998920803478;0.241198525079842;194.0;0.0
1.1002055879625383;-0.4489504122307495;0.95;-0.2640289322932232;0.1662536486426686;226.0;0.0
1.7506686535170408;-0.5963410208685962;0.9702380952380952;-0.3108287153402937;0.2781508471570672;232.0;0.0
1.8176418379913648;-0.475224901267691;1.0276243093922652;-0.1973568414250203;0.2619113167825552;251.0;0.0
2.016138815611826;-0.459794651874035;0.3929961089494163;-0.2450699543899921;0.4175484066194073;226.0;0.0
1.3208541971863963;-0.4646066860327803;1.0;-0.1844046775091271;0.2616942421162444;200.0;0.0
1.8177463238079068;-0.6227434113869456;0.9653179190751444;-0.3413451826666688;0.2888819780319229;241.0;0.0
1.722061574099179;-0.4525678053671157;1.030864197530864;-0.2702479902242982;0.3556662029474254;207.0;0.0
1.416344701583546;-0.7817592915259294;0.9510869565217392;-0.4031737971873407;0.2358576842998702;257.0;0.0
1.6905249992759723;-0.5725099806800279;1.0301204819277108;-0.1817021307039121;0.2580415981134776;236.0;0.0
1.6185673711384077;-0.604013058165373;0.9352941176470588;-0.31977038203458;0.2680822279130104;244.0;0.0
2.1155636430722704;-0.3451887974448907;0.9751552795031057;-0.1317734172063555;0.3907320273805361;219.0;0.0
1.8474078168372183;-0.671772927348765;0.9936305732484076;-0.434297978421283;0.359222382592314;290.0;0.0
2.613201308986466;-0.9004476757225874;1.920353982300885;-0.2077383757136236;0.7208381021931123;231.0;0.0
1.866226107567704;-0.3733396089346464;1.011111111111111;-0.1200129992067765;0.2548284530114489;230.0;0.0
1.4069437367572717;-0.6903009881328146;1.0164835164835164;-0.3095983058199179;0.2223785471717298;253.0;0.0
2.0203091726045432;-0.4084852428968817;1.0802469135802468;-0.1940828361552926;0.3393771755489383;290.0;0.0
1.2428557897308898;-0.4812874139020695;0.9929078014184396;-0.2105775383531877;0.2639272400255391;199.0;0.0
1.3214181096030495;-0.498121379845671;1.0161290322580645;-0.0833804490800736;0.2981294185822528;187.0;0.0
1.531938858873942;-0.5357554957153045;0.9513513513513514;-0.2199699458367749;0.2466281167498107;235.0;0.0
1.0705975627480582;-0.3301372553630556;0.9695121951219512;-0.1925616163487131;0.1603994644324434;225.0;0.0
0.8381061770466681;-0.4847319679508253;1.0198675496688745;-0.3159636108096718;0.142703122891473;206.0;0.0
2.654845773139193;-0.4799200382282602;1.018181818181818;-0.1293530593593982;0.6526275894393901;232.0;0.0
1.7624595295958267;-0.5448954125915868;0.9884393063583816;-0.2767475611826155;0.2665045347602727;235.0;0.0
1.2033835137813882;-0.5463312200847907;1.0337837837837838;-0.2655670792579621;0.2684486413105084;211.0;0.0
2.523453314908672;0.3771940345232886;1.0344827586206895;0.5729935154289457;0.3089090027239596;200.0;0.0
1.7595377341836866;0.0180656844072424;1.0;-0.2770187701946164;0.3473017833488184;220.0;0.0
2.2408487410337554;-0.3731699577360733;1.0320512820512822;-0.1370844681368774;0.44773667925571;173.0;0.0
0.7882130242314624;-0.4354333088370333;0.9939024390243902;-0.3381210534312684;0.1456874073739717;230.0;0.0
2.2976593813503863;-0.3792815109579022;1.0731707317073171;-0.1425687614154793;0.4314857417214543;213.0;0.0
2.194178655503171;-0.53565332651732;0.9285714285714286;-0.2123683993165499;0.4328263054936476;230.0;0.0
1.7014560080613774;-0.4344912562454548;1.0057471264367817;-0.23043859340765;0.268538141999517;226.0;0.0
1.675773142331206;-0.4909417827630429;1.0294117647058822;-0.2788664778128456;0.2690783386018607;255.0;0.0
1.6617699901539504;-1.4411762884639925;0.9734513274336284;-0.6187233522647874;0.4753203837759799;154.0;0.0
1.9174005002205523;-0.4505475520973742;0.9161676646706588;-0.22099036378089;0.431601229111659;186.0;0.0
1.6374401490748252;-0.4791203981743299;0.9470899470899472;-0.1521093092135371;0.2425554565439131;243.0;0.0
2.1276691033042323;-0.9580516662505631;0.9823008849557522;-0.1665954956844188;0.479984930484534;151.0;0.0
1.5297512386043173;-0.5986686337297906;1.0;-0.2257145694277341;0.2591079489960874;232.0;0.0
1.3609411108427538;-0.5304820854410698;1.0625;-0.2594162291740596;0.2207002184229653;246.0;0.0
2.315373711843903;-0.3305378477496358;0.9477611940298508;-0.0686999715041024;0.4141698157745145;205.0;0.0
1.0607805703478097;-0.3812771833997721;1.05;-0.2539716432477397;0.1630801357748094;225.0;0.0
1.2720712189600942;-0.5790885280755877;1.0551724137931036;-0.1635742680854701;0.2820689180643827;188.0;0.0
1.7577815465617617;-0.3869233938966074;1.0432098765432098;-0.2034590344522235;0.2633842920672226;250.0;0.0
2.0843674596969146;-0.4508805901897727;1.490566037735849;-0.1891690321952394;0.4045247227607303;224.0;0.0
2.0748132774590275;-0.4093903579724622;0.948051948051948;-0.2131795077642535;0.3960689207960021;238.0;0.0
1.9449531617872071;-1.2966606829460467;0.9391304347826088;-0.3711688127367065;0.503548479750845;158.0;0.0
1.0002882510585147;-0.4319449662805073;1.0457516339869282;-0.3207176707342076;0.1648328821201778;222.0;0.0
2.1336885975959428;-0.4046778399085028;0.9655172413793104;-0.1998526479423891;0.4101512973542642;217.0;0.0
1.6181386981895307;-0.5751348580990768;0.9891891891891892;-0.2622359260088761;0.2430789377318856;240.0;0.0
1.2520943412089345;-0.4620602706841837;0.9605263157894736;-0.1692790802996296;0.2559977586127113;203.0;0.0
1.8130765571194385;-0.3592180497007386;0.9675675675675676;-0.1989154858222891;0.2687724345978385;231.0;0.0
1.0294532692097114;-0.4035782681357054;0.9634146341463414;-0.3036142054313934;0.1632256068822636;230.0;0.0
2.039006694499097;-0.3460650355577138;0.9490445859872612;0.0487308941637372;0.4964107449010675;277.0;0.0
2.1949230143169114;-0.8581329625387971;0.9557522123893806;-0.0110629849492922;0.4654999967715222;159.0;0.0
0.9083148638339512;-0.4219085190175914;1.0855263157894737;-0.34585146994118;0.1559830735550735;216.0;0.0
1.674078107009564;-0.4978026659177251;1.0178571428571428;-0.1714145902581794;0.2498123833187124;252.0;0.0
0.9024522464419252;-0.4800109349858357;0.9693251533742332;-0.3617335688120928;0.155722834921913;235.0;0.0
1.6426779523257276;-1.583889124125579;0.9824561403508772;-0.6221561070110309;0.4848715051885034;159.0;0.0
1.6266791379976335;-0.1828320101019066;1.0298507462686568;-0.0339512302956161;0.2465364971123684;197.0;0.0
1.754781853639093;-0.5345520932057526;1.0536912751677852;-0.3162564301561801;0.3464751061197676;236.0;0.0
1.5284432840976767;-0.532915100897145;1.0106951871657754;-0.0883405096067043;0.2097535343636844;239.0;0.0
2.389911048800341;-0.582493704069601;1.018181818181818;0.1262300837511895;0.495236580586171;150.0;0.0
1.2425537419144224;-0.5150455969293731;0.9681528662420382;-0.2415618349803411;0.2597717623122769;214.0;0.0
1.6061127628470349;-0.5787682654646147;1.023391812865497;-0.3631449441884129;0.2587356932709716;246.0;0.0
1.2512434161696977;-0.5079446582001645;0.9594594594594594;-0.2215192648221543;0.2656711252097555;198.0;0.0
1.358735236533794;-0.3395293829318588;0.9659863945578232;-0.1551275504623286;0.2691995973775146;200.0;0.0
1.7669322368639837;-0.4945912172992282;0.9828571428571428;-0.281380377254959;0.2814697388698416;248.0;0.0
1.233631637839128;-0.4614158263033925;0.9928571428571428;-0.1962949984883314;0.2547946181130793;193.0;0.0
0.8724786690898437;-0.5354894965479333;0.9629629629629628;-0.3883898779779727;0.1576295666645307;232.0;0.0
1.5882744196899912;-0.6005182289963955;0.9464285714285714;-0.2746547245648593;0.2599227992986368;233.0;0.0
1.6936772434642302;-0.604323751272622;1.0239520958083832;-0.2515790889687623;0.2615625577780477;233.0;0.0
2.4202691526820868;-0.6859182567490066;1.0277777777777777;-0.197094807169624;0.5501638896839689;242.0;0.0
2.305374719343449;-0.904154830092536;1.0458715596330277;-0.0618895482059147;0.5130548723533032;156.0;0.0
1.8394222018397564;-0.4412325935528022;1.1904761904761905;-0.1809898054425501;0.4216508847944226;165.0;0.0
1.2329306607084036;-0.6320636952078434;1.0070921985815602;-0.3384026279246241;0.2824270141070429;198.0;0.0
2.0927712219194463;-1.0194692180359337;1.2222222222222223;-0.1324038929726155;0.4816165096684425;150.0;0.0
1.1798494483576545;-0.5854510587083567;0.9851851851851852;-0.1656435304508154;0.2747407670863838;198.0;0.0
1.1343166191110907;-0.3678666128339051;1.0;-0.2475402338948693;0.1850501033129583;186.0;0.0
1.4717639594937;-0.6756272807113715;1.0112359550561798;-0.2618673380745916;0.2311001735241366;252.0;0.0
0.9930490253222414;-0.819581116283449;0.9797297297297296;-0.6519105476021558;0.2490374999178343;188.0;0.0
2.096053816623075;-0.4287179666871895;0.9675324675324676;-0.1356938070264149;0.3980217939731663;206.0;0.0
1.5871753859028774;-0.5763732287020581;1.0248447204968945;-0.3676289992860302;0.2518038422802524;239.0;0.0
1.272028944133974;-0.413644064244539;1.0344827586206895;-0.18296677802886;0.2517727627270415;211.0;0.0
1.8578559400200465;-0.3916680131309454;1.0;-0.2173692619933312;0.2821270618598345;235.0;0.0
1.8555567817809984;-1.2909417314817;0.9642857142857144;-0.344226795605685;0.4668333515027722;156.0;0.0
1.230949568619067;-0.422796219801241;1.0454545454545454;-0.3024807672117695;0.2198116544671834;218.0;0.0
1.461508001708398;-0.5213186550066095;1.0635838150289016;-0.2147971663928516;0.2353435055971928;242.0;0.0
1.2313350137928247;-0.4629054156833904;0.9929078014184396;-0.1812863192206621;0.2624766821408056;199.0;0.0
1.8237909923687248;-0.4026738412640249;0.9767441860465116;-0.2134009859741337;0.2737462244347218;253.0;0.0
1.8962553380593672;-0.3638939374409032;0.9612903225806452;-0.1463702849670906;0.3697837067391533;231.0;0.0
1.0135312771955844;-0.3755090598471165;1.0242424242424242;-0.2385938624775183;0.1549093654484513;231.0;0.0
1.0585829519616683;-0.3057364447260048;0.95906432748538;-0.2262797639899014;0.1572192459498902;229.0;0.0
0.8302359461196486;-0.5084730516678128;1.0;-0.3808818093674149;0.1556441268730878;221.0;0.0
1.8119806219475036;-0.4381204970328126;0.972972972972973;-0.2651980689880595;0.2754261744418617;235.0;0.0
1.4444294630745995;-0.5987628615666195;1.010989010989011;-0.2136717611369204;0.2461716495708909;236.0;0.0
0.9950782417854568;-0.3958797766068291;0.9814814814814816;-0.320890248032231;0.1599709188809566;221.0;0.0
1.842564704661764;-0.3739487128424393;1.0254777070063694;-0.2448322852802452;0.2623512394047287;257.0;0.0
1.2770670438911935;-0.5156328040059757;0.9930555555555556;-0.2227016359823324;0.2813955758762969;206.0;0.0
1.9095638087248048;-0.7929344504499547;0.9814814814814816;-0.0098938450029041;0.4432853500127853;151.0;0.0
1.812462480357424;-0.4165690007842835;0.9761904761904762;-0.1919090287266285;0.2604690448463515;252.0;0.0
1.334418142897913;0.261393948121729;1.0516129032258064;-0.1320853383031734;0.2548218725937823;200.0;0.0
1.1621322970766257;-0.5463019539683852;1.0;-0.2752316077160894;0.2567457253750165;198.0;0.0
1.393831300482001;-0.6393318531520111;0.9754601226993864;-0.2933536934257991;0.2309451367783143;253.0;0.0
1.6882085777345923;-0.4978657626519958;0.987878787878788;-0.3084701319607896;0.2622460129248855;237.0;0.0
1.9849545969171871;-0.4374078141231721;0.978494623655914;-0.2082298585622887;0.4480902849520896;169.0;0.0
1.681520437654099;-0.6218673110398447;0.9766081871345028;-0.1829083409603561;0.2540521513825926;260.0;0.0
1.1232067018216316;-0.487710639341969;1.0201342281879195;-0.2586820030858421;0.2447135937125006;205.0;0.0
1.2689294126895094;-0.3918189436284333;0.9583333333333334;-0.1549793761544511;0.2322835974033925;202.0;0.0
1.7923337149120249;-0.4710588182848234;1.0180722891566265;-0.2125395411534846;0.2693088900492695;235.0;0.0
2.3866570684743307;-0.4596037907246112;0.9814814814814816;-0.1727441510992769;0.4569547814952376;225.0;0.0
1.7731447811793384;-0.4688166794265284;0.994011976047904;-0.2469464381168402;0.2792437953113446;249.0;0.0
2.086805842797768;-0.4797183895310134;0.95;-0.2483595615045337;0.3862542848858393;223.0;0.0
1.3670365755242233;-0.3674459467888129;1.0633802816901408;-0.2755897404526408;0.2340327981555344;194.0;0.0
1.2439372259581989;-0.4931103624104864;1.0287769784172662;-0.2345571294619463;0.2619270619267226;195.0;0.0
2.347143626573371;-0.8137693876304541;0.7244094488188977;-0.4972444779245924;0.6720856909018809;303.0;0.0
1.5493652837624077;-0.514009023715308;0.9534883720930232;0.050697834325785;0.2918887629312443;184.0;0.0
2.009994410052259;-1.312100290255485;0.4912280701754385;-0.5316964536132136;0.5459570879523136;153.0;0.0
1.668839444671408;-0.3686349591771795;0.9308176100628932;-0.1487396512552978;0.2922209305502073;223.0;0.0
1.7254662098844182;-0.3941388702722692;0.9945054945054944;-0.1791106375405755;0.2564088883881144;248.0;0.0
1.2521847174553966;-0.4980649031775244;1.044776119402985;-0.3282752777974564;0.2366838763494237;187.0;0.0
2.3768238007753366;-0.8218517357154964;0.9642857142857144;-0.1614125023234361;0.5162378313308682;153.0;0.0
1.1164503752514665;-0.989485220923212;1.0118343195266273;-0.6475787236378672;0.2333750604584703;255.0;0.0
1.5682655482705523;-0.0418396384169967;1.3121387283236994;-0.2169494263811454;0.2957131134872378;228.0;0.0
1.2337596646352609;-0.4815653671767669;0.9788732394366196;-0.2186413780811663;0.2673607535678741;193.0;0.0
2.001104415843083;-1.3479805029799368;1.0363636363636364;-0.3119839425273398;0.4986435385288453;154.0;0.0
2.171039452449858;-0.3106573093399108;0.9836065573770492;-0.1104005719819996;0.4065674306005637;244.0;0.0
1.7843975447557658;-0.4252414484708502;1.054878048780488;-0.1616809887810033;0.2749775218767625;228.0;0.0
2.367582722614252;-0.8108488154164227;1.0;0.0548795711628048;0.4904370741180375;154.0;0.0
2.100076791348873;-0.4637347787062362;1.00625;-0.232611001249214;0.4104068157291922;219.0;0.0
1.485326623077064;-0.1141792212471395;1.012269938650307;-0.3495969402154542;0.3150803916726879;210.0;0.0
1.2590583276580511;-0.4703885369034419;0.9864864864864864;-0.2439639772373882;0.2752086970455774;204.0;0.0
1.0402006745224734;-0.6918561897947579;0.9793103448275862;-0.2023182429565604;0.2918197895629253;189.0;0.0
1.687260201205148;-0.1647272261625985;1.393333333333333;-0.3579938829503777;0.3294711092482055;255.0;0.0
1.7284421338923086;-0.46364825037582;1.0;-0.2518605624342067;0.2635993175590495;238.0;0.0
1.4760578421624295;-0.6876193758347173;0.9567567567567568;-0.2609861170963017;0.235986814679821;252.0;0.0
2.727285954222574;-0.92286432160804;0.9482758620689656;-0.2115990451281834;0.7849904295990081;317.0;0.0
1.8701650443266216;-0.4868980625246205;1.0062111801242235;-0.2464163332732159;0.2760278775185176;248.0;0.0
0.9696031288865964;-0.6713704486859692;1.0225563909774436;-0.2147328024367185;0.2787013983736111;178.0;0.0
2.106828667597891;-0.3954310707704548;0.5477386934673367;-0.0377778429731998;0.5095246855218553;264.0;0.0
1.1912960697686108;-0.5319087234400112;1.0071428571428571;-0.2535221663618203;0.2531391120000456;192.0;0.0
1.7939393738502492;-1.4770937322545763;1.0;-0.5771608453345598;0.5411224926393067;152.0;0.0
1.4087454895829925;-0.4851169369275686;1.017751479289941;-0.2095753944870489;0.209435558213394;250.0;0.0
1.5153476554608274;-0.3217869776507577;1.0694444444444444;-0.152938761878502;0.3372861882378082;147.0;0.0
2.091835557138712;-1.2387905330805464;1.009090909090909;-0.3430577793091327;0.5237907959889553;154.0;0.0
2.32352808847494;-0.3269105240665969;0.991150442477876;0.52392512145857;0.4452079059451661;157.0;0.0
1.993296575837627;-0.4645868289026568;0.4067164179104477;-0.2098981585472317;0.3595038509194191;282.0;0.0
2.07421616940504;-1.189202338691616;0.8130081300813008;-0.2121344444548752;0.4916016310773655;154.0;0.0
0.9589461847007164;-0.4573736795863813;1.0301204819277108;-0.3460829608837868;0.1534680983237979;221.0;0.0
1.0826041270397604;-0.3490255122626928;1.0125;-0.2784766017663598;0.1839447457129999;213.0;0.0
1.3320604994588807;-0.4395988192579997;1.014388489208633;-0.1843463150474971;0.2718890366105464;193.0;0.0
2.128323957978341;-1.2015068845535923;1.0;-0.3315463487885776;0.4859270806434239;153.0;0.0
1.8454093687590944;-1.313827093409314;0.7404580152671756;-0.5806264125015275;0.588358278554989;152.0;0.0
1.2832917806204387;-1.0182599021005634;1.0344827586206895;-0.2430491334791509;0.3910671914228631;201.0;0.0
2.457140399305771;-0.4734185129730037;1.0945945945945943;-0.2244097751454862;0.4452419632456952;208.0;0.0
2.013019645304884;-0.425677699443109;1.875;-0.1627769081804488;0.4635249233921708;205.0;0.0
1.170174388254066;-0.636229711673306;1.0085470085470083;-0.1739987327133579;0.2815707689713247;182.0;0.0
1.657231837106243;-1.979231825792757;1.0467289719626167;-1.2309843821556352;0.5620642337158411;165.0;0.0
1.1828972259243455;-0.5335416664086473;0.9856115107913668;-0.2597468180175334;0.2524672593064889;194.0;0.0
1.2130218819114034;-0.5112365857689272;1.0070921985815602;-0.2572536599515064;0.2656736427315199;194.0;0.0
0.9522641301738028;-0.3951790750780127;0.9556962025316456;-0.2699515587440941;0.152752134163574;210.0;0.0
0.8429179116615859;-0.4572703132155856;0.96875;-0.3415352891966619;0.1431616932874995;221.0;0.0
1.922377264488532;-0.7071229430575767;2.090909090909091;-0.4667834733370039;0.3746075437731058;253.0;0.0
2.142691889485831;-0.8168421975909625;1.0471698113207548;-0.0473660588332915;0.5022477979360594;148.0;0.0
1.9431283763319969;-0.5577190659468089;0.2927756653992395;-0.3004764748642381;0.4120419931441064;236.0;0.0
1.833979111629514;-1.7544121756131152;0.9824561403508772;-0.6268217296334122;0.5154731737374391;152.0;0.0
1.6053194168111231;-0.5365831944865372;0.9835164835164836;-0.2051806207261214;0.2476976398574689;250.0;0.0
1.7752797941929883;-0.6157785000324143;0.9130434782608696;-0.3566799258709081;0.289146368296429;252.0;0.0
2.868164536861849;-0.5166832090452794;0.972972972972973;0.0530197123104214;0.6617097123450861;302.0;0.0
1.6841766025145497;-0.5618325335989796;0.9485714285714286;-0.2682173693447465;0.2586932552001663;230.0;0.0
1.7601633663637162;-0.4668876704600092;1.0823529411764703;-0.2685881350166656;0.2769503434050657;243.0;0.0
1.9865719386716885;-0.4896387627801946;0.9937888198757764;-0.2362686307958509;0.4345182130838291;190.0;0.0
1.3481805759999523;-0.4578738141578478;1.0212765957446808;-0.1521781120443987;0.2704572643366621;198.0;0.0
1.156963841656033;-0.6868842830218431;1.0465116279069768;-0.2466684614990615;0.3018472145993246;190.0;0.0
0.9315362016020944;-0.497546780706008;0.9526627218934912;-0.2971633412550731;0.1589351178474551;232.0;0.0
1.1625160106462988;-0.5661425048121271;0.9931506849315068;-0.296630849581538;0.2643850661575242;198.0;0.0
0.8317259901944309;-0.5675359285879302;1.051282051282051;-0.4190789284427694;0.1640456601951312;220.0;0.0
1.69300171320752;-0.5295059521014406;0.9597701149425288;-0.2046912028225803;0.2572053085557964;249.0;0.0
2.111351837713273;-0.3965479025098452;0.5;-0.2070600438559076;0.4090707503989387;220.0;0.0
1.4855138461741964;-0.5444446182138492;0.9550561797752808;-0.2449462993459437;0.2465902160634696;239.0;0.0
1.939391672378872;-0.9201537080099158;1.0176991150442478;-0.0517022342177877;0.4555899948581476;160.0;0.0
0.83348359499873;-0.5143354150956051;1.0193548387096774;-0.3685453036194315;0.1549166735085448;219.0;0.0
0.6690111958939;-0.5251978626426129;1.0628930817610065;-0.4258981170487311;0.1457925153753516;215.0;0.0
1.7543159866392768;-0.3896088112437971;0.9939024390243902;-0.2099592103892237;0.2598776915830925;254.0;0.0
0.860525689503042;-0.5050887047501117;0.9662162162162162;-0.3850948000772585;0.1684342864523697;186.0;0.0
1.5024863390260268;-0.5274517745607171;1.047337278106509;-0.1964614035280868;0.2385393936860036;250.0;0.0
1.2335636059591963;-0.5073826621246612;0.9736842105263158;-0.2294468949009306;0.2625169838582571;201.0;0.0
1.240766509744708;-0.4844287150310016;0.9802631578947368;-0.2299933365836824;0.259919359468005;204.0;0.0
1.4451296766410016;-0.3042701015847487;1.037313432835821;0.125689150476355;0.2960133947937717;193.0;0.0
1.2455814625213173;-0.4820194430256427;0.9738562091503268;-0.2136941785922186;0.2563253089856958;206.0;0.0
1.7817324013143343;-0.4736282639685252;1.005952380952381;-0.1959130773160699;0.260290928151044;245.0;0.0
2.217932675777033;-1.0202814946196124;0.991150442477876;-0.238478325864172;0.5234401341995397;150.0;0.0
1.0048959975405414;-0.4142858336724737;0.99375;-0.3302071957098771;0.1618968508462515;232.0;0.0
1.0340892612983876;-0.4109165295271014;1.0;-0.296076901962154;0.1579146228111904;249.0;0.0
2.683774518571555;-0.8120051092595413;0.8851063829787233;-0.3799339200464006;0.7179801146718279;310.0;0.0
1.2015595204798022;-0.4837797242398661;1.0354609929078014;-0.2466746329383552;0.2489203483418543;200.0;0.0
1.8669150745120724;0.4041291809543547;1.0466666666666666;0.0139106293737804;0.3465472905968423;191.0;0.0
1.738786157831721;-0.4618157041141402;1.0174418604651163;-0.1798604337870255;0.2534568100608609;250.0;0.0
1.7096805461719409;-0.5712659096355739;1.0;-0.2685251604369311;0.2586706894415052;244.0;0.0
2.2068130885116606;-0.956747934546068;0.990990990990991;-0.0064594694355157;0.5059181780775116;147.0;0.0
2.2849241451777185;-0.9525837707517266;0.9487179487179488;0.0026791753277178;0.5073991333697411;158.0;0.0
1.17923361960184;-0.5231084867082991;1.0220588235294117;-0.250966187019515;0.2541832677823513;197.0;0.0
1.9283520349953287;-0.43483998342931;1.0225988700564972;-0.2158789729790095;0.2922693801045181;233.0;0.0
2.325038189653058;-0.5067991629659244;1.116504854368932;-0.2831200665898495;0.6716079634339658;214.0;0.0
0.8175804346654216;-0.4407347563995287;1.0304878048780488;-0.3610149362738257;0.1617345708477057;222.0;0.0
1.9864262441082687;-1.3083460806564222;0.990990990990991;-0.2836667334268506;0.4998466312500115;156.0;0.0
1.5482112432268278;-0.5709161667467407;1.0179640718562877;-0.2588816859469358;0.2362650696237206;255.0;0.0
1.7296299565542734;-0.4832285237841858;1.0;-0.2241792111162589;0.2580113789209787;237.0;0.0
1.6706296344187002;-0.4378163606733558;0.994011976047904;-0.2597257480672114;0.2590442940776122;252.0;0.0
1.6805506864082955;-0.3746294887765811;0.9553072625698324;-0.187783934308661;0.2568221271114911;245.0;0.0
1.8119086800196973;-0.4742489604492829;0.9783783783783784;-0.1792101011250478;0.2621762678581845;241.0;0.0
1.0072639357745452;-0.4258194295509899;1.1511627906976745;-0.3266656761263969;0.160538423155079;225.0;0.0
1.497448314551722;-0.6439956192425722;1.0346820809248556;-0.262121444943705;0.2370989317880274;252.0;0.0
1.11909015537882;-0.7587066209085066;1.0;-0.2173771520130256;0.2705923718560705;183.0;0.0
1.8372148629693976;-0.4963369240058561;0.9485714285714286;-0.1878040548352385;0.2666756544270403;;0.0
2.3792201271824966;-0.7688356855391252;1.0275229357798166;0.0061756315097427;0.4969128889158666;151.0;0.0
1.6047159737613033;-0.3954854191678288;1.0416666666666667;-0.2104394207959148;0.25166577197731;233.0;0.0
1.3413165469841708;-0.3997225605639645;1.0132450331125828;-0.2222003275364335;0.329748937908063;166.0;0.0
1.2375305035388298;-0.5316955412406905;1.0068027210884354;-0.2515531638843453;0.2768150677804347;206.0;0.0
2.194851635632665;-1.1041295838850114;0.9322033898305084;-0.2716448788039237;0.5145599943057018;153.0;0.0
1.6334355450679956;-0.448164474239057;0.9715909090909092;-0.2575222249150489;0.2565837856003495;241.0;0.0
1.0454119895126683;-0.3976876812983787;0.9578313253012049;-0.3070235773066154;0.1661384325980483;232.0;0.0
2.192439215399637;-0.7884866362106783;1.2884615384615383;0.1185333204461798;0.4679010902693148;157.0;0.0
1.8551381006107488;-0.4141422834543148;1.0108108108108107;-0.1460788977248178;0.2640423123496068;239.0;0.0
1.2063263529841393;-0.5562588487208919;1.0218978102189782;-0.154578472190555;0.2903249801909222;188.0;0.0
1.904931833554532;-0.3764321608040201;1.5256410256410255;-0.160478728518186;0.3745439087434301;206.0;0.0
2.126913508497419;-0.5204646232799779;1.0;0.247230680168503;0.445472933591775;152.0;0.0
1.2888192397141738;-0.4816804343165679;1.0133333333333334;-0.211648682062098;0.2628293634711494;207.0;0.0
1.2016235175630934;-0.7796481877696018;0.9708029197080292;-0.1540683918563684;0.3001999994484809;188.0;0.0
2.3204265933788597;-0.6438546718231607;1.0;0.0870439591845781;0.4794317763178785;155.0;0.0
1.197824137483673;-0.5605302089147395;0.9716312056737588;-0.281776287531248;0.2668844816864471;193.0;0.0
1.0716080036049147;-0.4802477710847443;1.0303030303030305;-0.3301834531779244;0.1680191327526294;225.0;0.0
1.002014532025126;-0.3796412620468748;1.024390243902439;-0.2904190900311315;0.1567793622663199;227.0;0.0
0.9397216537442517;-0.4266725495908157;1.0;-0.3379920052085407;0.1608405362357236;214.0;0.0
1.0328897208275925;-0.3265939010441597;0.9794520547945206;-0.2324844138529354;0.159641384816666;199.0;0.0
2.269126685160944;-1.1351228699700249;0.9912280701754386;-0.0956647676053652;0.5527006621299428;160.0;0.0
1.8061179350487628;-0.5974261095602622;1.0;-0.2798376592180362;0.2800366234672591;229.0;0.0
0.9060895374853316;-0.4228206298118519;0.9807692307692308;-0.3213542781879238;0.152134416473336;214.0;0.0
1.621269332698482;-0.5299707945559589;0.981012658227848;-0.2949808255167052;0.2626331892328061;237.0;0.0
1.2238374071260458;-0.520598418289981;0.9855072463768116;-0.247017824800161;0.2678868759017461;194.0;0.0
2.1372583444985214;-0.2982582951113246;0.9938650306748468;-0.070801330888173;0.3922818452475108;252.0;0.0
1.70768421725451;-0.5568295457514549;1.0;-0.2550234442463982;0.2565477755449591;243.0;0.0
1.1072760087158602;-0.3818645321387002;1.018181818181818;-0.2965334689001854;0.172433844406041;225.0;0.0
1.2751063622903938;-0.5015353154466464;1.020408163265306;-0.2230312154394363;0.2690757260607687;209.0;0.0
1.2051373435923902;-0.3040497154167859;0.9882352941176472;-0.2328713890113409;0.1756087652906479;231.0;0.0
1.1846875350709616;-0.4992021735845137;1.0307692307692309;-0.0177373164137967;0.2950446711932528;171.0;0.0
0.966107207822816;-0.6620625773569676;1.015267175572519;-0.232868860273529;0.2752910009487432;187.0;0.0
1.0446534308002575;-0.3618044336201385;1.1714285714285717;-0.2855040428777796;0.1637087833865795;231.0;0.0
1.8100323389905155;-0.3474629076384533;0.9945652173913044;-0.2144068835308804;0.2862727677129754;246.0;0.0
1.460165046415023;-0.5355584614781507;1.0225988700564972;-0.1913391971314085;0.2309184147312195;256.0;0.0
1.190847355722878;-0.5777981959054409;1.0285714285714285;-0.2734655872992641;0.2688609545822686;192.0;0.0
0.9947157963345832;-0.3907907902005667;0.975;-0.2911617942893169;0.1597249324220706;227.0;0.0
1.4158516434359405;-0.3537417189713386;1.0232558139534884;0.0732056477625553;0.2762537978767865;191.0;0.0
1.509925860432899;-0.5197854025007733;0.9633507853403142;-0.306760043179301;0.23853408513983;239.0;0.0
1.919900657920667;-0.4120230661965127;0.9705882352941176;-0.1742302185122762;0.3820264027611968;216.0;0.0
0.8728381543209415;-0.4932999973740285;0.9230769230769232;-0.3352788893672563;0.1485036347896787;227.0;0.0
1.7109274228378777;-0.4438497994373382;1.0542168674698795;-0.1797126003744096;0.2520476836411268;230.0;0.0
1.1141020866659987;-0.5656994017303658;0.9466666666666668;-0.3056349755188742;0.2602470053630856;206.0;0.0
2.451622733957475;-0.6534448620028417;1.0;0.1311212261745024;0.4885460772778259;151.0;0.0
1.8247246164754205;-0.5700943615676776;1.0193548387096774;-0.2821344638414099;0.2858627700759939;230.0;0.0
1.844815037036432;0.2402609102542554;0.3303167420814479;-0.1150217572388287;0.3102372047644642;233.0;0.0
1.1745750838818338;-0.5348492462311556;1.0264900662251657;-0.239464262252902;0.2549925726499492;207.0;0.0
1.6959933173294826;-0.4123682002658635;0.9518716577540108;-0.1848824710874539;0.2581789875137341;230.0;0.0
1.1074523076032383;-0.3163802849550316;0.9542857142857144;-0.2820205339064192;0.1803174670238432;230.0;0.0
1.6019663416160037;-0.6300897105110785;1.0459770114942528;-0.2852440564023023;0.2654026048246581;205.0;0.0
1.6399934865340529;-0.5599335570166764;1.0365853658536586;-0.232342676116437;0.2375385091732911;252.0;0.0
1.6700224025950674;-0.5117559079151772;0.9941176470588236;-0.2821349403729508;0.2752648951157742;251.0;0.0
2.0465346389342285;-0.4569768021466234;1.0316455696202531;-0.2629455519217057;0.406394983265971;200.0;0.0
1.2916088978269875;-0.4344043752941606;0.9933774834437086;-0.1749196602607987;0.2621037096347093;210.0;0.0
1.884631327045488;-0.3248975868567598;1.015384615384615;-0.1078266781067012;0.3571544651487193;210.0;0.0
0.879241551713901;-1.1682221553858254;1.0755813953488371;-0.7591846483310627;0.2230275597039211;245.0;0.0
1.062398507762743;-0.4349195547258703;1.0;-0.3086758748834242;0.1672210657772321;226.0;0.0
0.8395910512834106;-1.2076759051063457;1.0058479532163742;-0.7582676482299897;0.2208370090138139;252.0;0.0
1.7801982105294578;-0.4565654096177977;0.9725274725274724;-0.1736900173434311;0.250108795553119;265.0;0.0
1.281036214813088;-0.4374440332359424;1.0142857142857142;-0.0240206986324464;0.2918608386784372;193.0;0.0
1.7803617591969538;-0.5445767337309436;0.9176470588235294;-0.2554039839839515;0.2734670500217189;258.0;0.0
2.094214526305671;-0.3912412865744852;1.018867924528302;-0.1773942017239628;0.4607945075551733;166.0;0.0
1.5205921683093724;-0.6471575299983856;0.9763313609467456;-0.2518849291830329;0.2392244557837333;252.0;0.0
1.4090386855255497;-0.5896419136476208;1.0355029585798816;-0.2624136614048054;0.2261096906629371;230.0;0.0
1.2578684731599232;-0.5946030231999887;1.0;-0.1812465374689247;0.2944447175121383;178.0;0.0
1.4238770317025122;-0.5477225213630725;0.967741935483871;-0.2477266060702004;0.2267134116268962;243.0;0.0
1.22856621418522;-0.4806344107866321;0.9864864864864864;-0.2046456649567918;0.2614231000916466;209.0;0.0
0.8202374120056376;-0.3584678141329519;1.0134228187919463;-0.2575634117526217;0.1370840222859399;205.0;0.0
2.000398277710681;-0.3052889239554066;1.03954802259887;-0.0930161209935886;0.2698670727752972;252.0;0.0
1.7411758248557978;-0.4512636312801842;1.0621468926553672;-0.1804294424699545;0.2762321027242458;233.0;0.0
2.176309950645684;-1.0863609957254927;2.083333333333333;-0.2235360373964999;0.5242123509752468;159.0;0.0
1.378977200443131;-0.3949743066097926;1.0;-0.1031075064869297;0.2832810318944806;209.0;0.0
2.272517096632926;-0.98470957307642;1.1122448979591837;-0.3937679806149916;0.5588719134475206;225.0;0.0
1.5978229978545375;-0.6295935544476452;1.0823529411764703;-0.2586077763019657;0.2492167969288123;238.0;0.0
1.033251398192664;-0.4585834690736732;0.975;-0.3343464297503607;0.1717015494064072;222.0;0.0
1.835959179939473;-0.4931354897085057;0.9715909090909092;-0.2263565818429246;0.4373990872840826;232.0;0.0
1.0875515231183177;-0.4676670332655963;0.9653179190751444;-0.3285683617308493;0.208338123894806;228.0;0.0
1.805140153661864;-0.3876392847311041;1.0217391304347827;-0.2220762289034824;0.2572828148306217;242.0;0.0
1.828382965224012;-1.0995386805913436;0.9642857142857144;-0.1727646101901666;0.4593873247464141;154.0;0.0
1.83277250863809;-0.3462567574644862;0.9942857142857144;-0.2068588040573634;0.2789083749903279;242.0;0.0
0.953192786849044;-0.371507658684835;1.0357142857142858;-0.3067164994181544;0.1484172127040933;224.0;0.0
2.0413931577760995;-0.3933514889397439;0.8941176470588236;-0.1647196461512703;0.388704844825016;244.0;0.0
1.7624947828180813;-0.3624365553382616;0.9314285714285714;-0.1772361315968702;0.2534900433515526;249.0;0.0
1.0552224074992718;-0.3783327266312524;1.0058479532163742;-0.2936896941893471;0.1644220713894825;233.0;0.0
0.95594946181563;-0.4958191800434075;0.9821428571428572;-0.332395421211586;0.1668116099943476;223.0;0.0
1.1645374260886825;-0.6159955314620807;1.0;-0.1864293935956597;0.2800353133204621;206.0;0.0
1.434903085864927;-0.4277814759390148;1.0634920634920637;0.0185277756370374;0.2861796040435067;183.0;0.0
1.2589535494648687;-0.5155696725520784;0.9666666666666668;-0.2263354593164757;0.2689349614003875;205.0;0.0
1.5909335106931195;-0.4628013659102627;1.005952380952381;-0.2618384359294912;0.2582720721575317;245.0;0.0
1.1201815242468864;-0.6516262730162982;1.0588235294117647;-0.2233624625327058;0.3020326451874153;191.0;0.0
1.2022596412388298;-0.3356367402816554;0.9935483870967742;-0.2227869917028609;0.1698036904689614;216.0;0.0
1.9708501027582053;-0.383609166429423;0.993975903614458;-0.1912879402968811;0.3922008154731545;231.0;0.0
0.7955483669289785;-0.4150213015155266;1.065359477124183;-0.3179989872183212;0.1330099480874531;219.0;0.0
1.3245978361808304;-0.4436453122078249;0.9927007299270072;-0.1588731080838675;0.2660975169032956;195.0;0.0
0.8604940586794647;-0.4565199071775692;0.9691358024691358;-0.3465819050949841;0.1562327540279021;231.0;0.0
2.48265883140412;-0.72160454672473;2.3666666666666667;-0.1719301620690176;0.6100489193118623;311.0;0.0
0.622081586320235;-0.6194732351603431;0.7808988764044944;-0.4665881974718465;0.1343163220912686;215.0;0.0
0.8650735931675652;-0.5189445147422734;1.0328947368421053;-0.3437307203962153;0.1517343858000919;220.0;0.0
1.9033347895015096;-0.4115434259555613;0.9879518072289156;-0.1715748262123149;0.2801425033295792;255.0;0.0
1.2049524557024185;-0.4832885642743385;1.627906976744186;-0.223943194370112;0.2809502398060239;161.0;0.0
1.9024368202242603;-0.4909749777099457;1.597938144329897;-0.2454095065929881;0.3909542641732958;230.0;0.0
2.0335774390364265;-0.4940613675502262;1.105263157894737;-0.2856699277219386;0.4141870694324559;206.0;0.0
1.5149918912260905;-0.5956859776367767;1.011049723756906;-0.2445084038268708;0.2344891405403702;239.0;0.0
2.1315391497196474;-0.5101786164136662;0.9647058823529412;-0.263705520768339;0.4154252190828546;259.0;0.0
1.7222184567057517;-0.5104689068929626;0.9723756906077348;-0.2362288235744739;0.2527665468157594;256.0;0.0
1.2137707354392222;-0.5173749781330587;1.0;-0.2453797971006029;0.2566457591935333;207.0;0.0
1.1484415303679287;-0.3926455616336687;1.2868217054263569;-0.2966243494479949;0.1920558735053739;233.0;0.0
0.7405558694670706;-0.5541440950052512;0.9492753623188406;-0.424408777689532;0.1487798044251888;205.0;0.0
1.219635742862924;-0.6794462124694641;0.9635036496350364;-0.1146648439039362;0.3019154849279905;183.0;0.0
2.0685063872329814;-0.4366844899888701;1.934065934065934;-0.2395401201003122;0.3951399375270618;240.0;0.0
1.7301341515301596;-0.4486467144966561;0.8994413407821229;-0.2611260441666264;0.3425759179614983;239.0;0.0
2.4736514526663003;-0.8170942702369026;1.2916666666666667;0.199185661036553;0.51692823627069;156.0;0.0
1.8569350895236476;-0.4397499251641314;0.967391304347826;-0.1469704539785672;0.2700177833373036;246.0;0.0
1.637547045453408;-0.5083497655456111;0.46;-0.311930254568628;0.3602758242640584;202.0;0.0
1.8807574880323836;-1.1381426458768045;0.5116279069767442;-0.3412570019917749;0.4903990919656254;154.0;0.0
1.1994480023117458;-0.5561539011049456;0.9722222222222222;-0.2390614252165016;0.269363009772984;197.0;0.0
1.0453415277385745;-0.4787766209608576;1.0120481927710845;-0.3099176475679738;0.1752932693033785;221.0;0.0
0.9183651820231687;-0.3864177996238155;1.0185185185185186;-0.260024446207619;0.1496752329461667;210.0;0.0
1.271548139982098;-0.4607910363006316;1.0068027210884354;-0.1903951897778837;0.2615025588893896;208.0;0.0
1.2301490783830984;-0.4165858414001169;0.9790209790209792;-0.208727783056558;0.2561939830792593;199.0;0.0
1.0784356332952378;-0.3960484438246188;1.0240963855421688;-0.2510820450714762;0.1735317734576944;223.0;0.0
1.802882624002588;-0.4468519997657909;0.9885714285714284;-0.2851403797411999;0.2814082220831616;253.0;0.0
1.856086887926157;-0.3539547590208231;1.0;-0.1637338095909582;0.2788550635916716;228.0;0.0
1.2268405473937691;-0.4877423955402108;0.9929577464788732;-0.2323527043988794;0.2317608448328554;202.0;0.0
1.6475934389186389;-0.5280619666087712;0.9832402234636872;-0.2380215998073109;0.2719910156847122;228.0;0.0
1.2594995838429537;-0.4674951929826682;0.9671052631578948;-0.19960586259241;0.2527542309612497;208.0;0.0
1.7409552883372306;-0.4098850513514097;0.9943181818181818;-0.1710064017763463;0.2663666929317134;242.0;0.0
2.192854337484946;-0.8838599673879661;0.7165354330708661;-0.0743285190205465;0.4857731551815952;156.0;0.0
1.313459003590503;-0.5302337445788466;1.041958041958042;-0.3249331309678871;0.2382514275424372;175.0;0.0
1.4302213240142043;-0.5252733608669795;0.9438775510204082;-0.2434902592045102;0.2269035147286969;254.0;0.0
1.7393711749206755;-0.4679088954524372;1.0616438356164384;-0.2951743408314198;0.3482237479253559;197.0;0.0
1.3078970075168002;-0.4032018423767851;1.0;-0.1411330163821241;0.2708257187792495;193.0;0.0
1.8429734744909172;-0.4564365855210961;0.9649122807017544;-0.2102692833092015;0.2734028920327344;256.0;0.0
2.35034753877603;-0.8924345161954608;1.0092592592592593;-0.0559346968152579;0.4963635262823978;153.0;0.0
1.184925204585028;-0.5828651018634288;0.98;-0.2831232898672653;0.2615163836770843;205.0;0.0
1.0438254004211471;-0.7548049318454719;1.0075187969924813;-0.2746109741303019;0.2876028165644234;180.0;0.0
0.904320622039786;-0.5087767247718514;0.925925925925926;-0.3781853197061983;0.154011895002927;227.0;0.0
2.175615114182397;-0.375099474209169;1.7419354838709675;-0.1432534463713283;0.4073858759974278;236.0;0.0
0.8802492351609947;-0.5046721238795975;1.0457516339869282;-0.3485886120547093;0.1521116032972059;220.0;0.0
2.135461785167432;-0.5622015005227028;0.9455782312925172;-0.3221362483425538;0.381498874720945;293.0;0.0
1.7842841758216277;-0.4708536986544899;1.0397727272727273;-0.2297595235291473;0.2614031838043582;226.0;0.0
2.890000000000001;-0.8038856431733417;0.9734513274336284;0.0680460703033115;0.8262967822684107;219.0;0.0
1.1476999811395534;-0.5304522885117892;1.0133333333333334;-0.2652783841725379;0.2324892080122269;210.0;0.0
2.1814069083359287;-0.7557447091442427;1.1649484536082475;0.1111028344226876;0.4704531737950339;160.0;0.0
1.15270377366009;-0.768106099394263;1.0;-0.6740514064124067;0.2889545482623854;190.0;0.0
0.8414801296011931;-0.4519909253663063;0.9452054794520548;-0.3626874518113467;0.1629699386495509;211.0;0.0
1.2243443354302768;-0.4996259764446296;0.9583333333333334;-0.2371725302214708;0.2534371096084557;204.0;0.0
1.896776649392861;-0.9473800831205592;0.9912280701754386;-0.329776342195386;0.4664658528163757;153.0;0.0
1.3801827292776152;-0.6386039311892604;1.032085561497326;-0.2968392416976668;0.2242381743270909;248.0;0.0
1.90964960320951;-0.4199307811769918;1.0121951219512195;-0.1943504471971253;0.2905242484945541;225.0;0.0
1.4553770154403416;-0.5870028425938313;0.9884393063583816;-0.2618748759425831;0.22085556901944;265.0;0.0
1.7336543801888649;-0.4884487544429406;1.0;-0.2805466588851687;0.27613882352927;259.0;0.0
1.1994603057729725;-0.7207036845765835;1.0;-0.1182499043919522;0.2905502505633698;181.0;0.0
1.3557135300975902;-1.15195988095823;1.0508474576271187;-1.038368059334705;0.4224072077083745;208.0;0.0
1.8243979837266304;-0.4060268668486368;0.9181286549707602;-0.1733593969762986;0.4295897784977061;181.0;0.0
1.00966153922456;-0.4015885387568294;1.0482758620689656;-0.3094270014262278;0.1602700856746957;211.0;0.0
1.1597167469172671;-0.5528749157280279;1.006896551724138;-0.2762204679760757;0.2609313408432644;202.0;0.0
0.8863461908428483;-0.3925927503686709;1.0506329113924051;-0.2886339937362012;0.1476849967805219;221.0;0.0
1.9006330672918643;-0.5240672692140201;1.3157894736842106;-0.3431411377465791;0.3930103359690232;189.0;0.0
2.0837540204151184;-0.9718267398501444;1.2523364485981308;-0.165878796449577;0.503899435216202;154.0;0.0
1.2184770542511814;-0.4876951652513841;0.9659863945578232;-0.2383835913765546;0.2846346744528273;169.0;0.0
1.353751584741042;-0.430286557235548;0.9933333333333332;-0.1169062796300198;0.3050446166340252;209.0;0.0
1.546506792918139;-0.3685544868377391;0.3888888888888889;-0.1976369053035032;0.3043954460510709;218.0;0.0
1.985936621069116;-0.2153723714790789;0.9515151515151516;-0.0459103958478869;0.3402389776444076;236.0;0.0
1.755172461274754;-0.4738061855003886;0.9664804469273744;-0.2424871655563062;0.2695213882872361;244.0;0.0
1.999376866314062;-0.9037828259179532;0.9734513274336284;-0.0879244362648391;0.4444206261367117;158.0;0.0
1.94237312212134;-0.5200935571684278;0.9405405405405406;-0.2409123319262592;0.2912077943938587;246.0;0.0
0.998992925368074;-0.3996067300751772;0.9761904761904762;-0.2967389532059708;0.158580711186418;235.0;0.0
1.9716866890947229;-1.278236994293808;1.25531914893617;-0.4007327527548013;0.5858746177524027;306.0;0.0
1.9905400623004632;-0.3727766479436862;1.5302013422818792;-0.1178077927002321;0.3383615721947219;240.0;0.0
0.923550483762795;-0.3924040325921121;0.98159509202454;-0.3027271110426771;0.1486846743791616;238.0;0.0
0.9446008661933628;-0.4019512939744465;1.0696202531645569;-0.2991508793840703;0.1510965152776602;218.0;0.0
0.9223072791149494;-0.3501457991400372;1.0542168674698795;-0.2808230479237932;0.1500547303781093;222.0;0.0
1.0791159792351588;-0.3805013544250489;0.9760479041916168;-0.2717669933050471;0.1733573719831121;230.0;0.0
2.29569407896655;-0.96451468060864;0.9478260869565216;-0.1334728456436152;0.5004382353728731;152.0;0.0
1.770842796789351;-0.4758948264056334;1.0179640718562877;-0.2736733970497466;0.2761078572105585;220.0;0.0
0.7863596717800967;-0.4279554206312402;1.0316455696202531;-0.3089541184537769;0.1367938675335138;227.0;0.0
2.097832305255264;-0.9850048691153608;0.9652173913043478;-0.0737913410333128;0.4708279799969597;155.0;0.0
2.191455743385541;-0.3497403286638326;0.4150943396226415;-0.1330720458105129;0.4031921132692804;230.0;0.0
2.043262699860051;-0.4071105527638192;0.9702380952380952;-0.2196149209647507;0.3187766213324784;333.0;0.0
1.2836081025034902;-0.4499088681326171;1.0;-0.0521130901700622;0.2785300793658592;181.0;0.0
0.8447828847234284;-0.4632123639957187;1.0;-0.3464459795393984;0.1537967574183376;230.0;0.0
1.6809852043156208;-0.550424655268161;1.023391812865497;-0.2658747280110073;0.2664541558836326;230.0;0.0
2.645828401582834;-0.4702029464095967;1.0091743119266054;-0.0394064061618827;0.6520110570251149;306.0;0.0
2.668540864444801;-0.6373055991398733;0.9646017699115044;-0.229101999099959;0.719450520763955;307.0;0.0
1.1859020772005324;-0.5507254833001262;0.9928057553956836;-0.2916876852269812;0.2517457038684325;200.0;0.0
1.036833834860054;-0.3753141639688429;0.9698795180722892;-0.257033958719622;0.1576324183790244;224.0;0.0
2.1040552473400487;-0.8406791324130543;1.0;-0.0837506204515238;0.4692789257766285;154.0;0.0
0.8618237000946228;-0.4974474495515772;1.049689440993789;-0.3509163439796582;0.1479160219986527;225.0;0.0
1.2840250216635123;-0.4431496067363979;1.0140845070422535;-0.1727171994683404;0.2543896012702769;194.0;0.0
1.660286956198964;-1.3269756119340417;0.991150442477876;-0.4103025141955339;0.4722521750820613;158.0;0.0
1.0702123492081526;-0.3242274182616444;0.9644970414201184;-0.2519405582877521;0.1547786744124508;237.0;0.0
1.0740575996563784;-0.9372297879458412;0.963157894736842;-0.5125574014437456;0.2213205077334638;245.0;0.0
1.6546773270442885;-0.2746985931426441;1.380952380952381;-0.1190395959981945;0.3118877378909549;235.0;0.0
2.349004294456813;-0.922517118826758;1.009009009009009;-0.2206652730224658;0.5708549620634178;150.0;0.0
1.2065208206069988;-0.5032969607515989;1.0142857142857142;-0.2072505568542126;0.2570967120251994;194.0;0.0
0.9789830112413024;-0.3692701923834957;1.0432098765432098;-0.2799422655823033;0.1554358391205177;220.0;0.0
1.9792315562465692;-1.465560936597319;1.0176991150442478;-0.5189181987532347;0.5376744963820951;153.0;0.0
1.6791886037208354;-0.5493903838547173;0.9824561403508772;-0.2959137960865002;0.2599285178816921;247.0;0.0
1.039900043612197;-0.2357800519842324;1.0579710144927537;0.1359486206586181;0.1711256062293618;202.0;1.0
1.0253680348496934;-0.3739366728768016;0.6630434782608695;0.0575820526495683;0.1867735222814693;191.0;1.0
0.3656334699415647;-0.5922275310205983;0.967948717948718;-0.212074304556547;0.1394713204592966;209.0;1.0
0.6357454325527866;-0.2510380349926652;1.0;-0.0591460512941633;0.2030487131120244;207.0;1.0
0.3783932192411099;-0.4205785354158509;0.7463235294117647;-0.1056649009612505;0.1118835655602165;196.0;1.0
0.4041552644012209;-0.4235018634353708;0.9798657718120806;-0.1086643641327908;0.1143269665512629;201.0;1.0
0.5478679758109023;-0.4563441951178166;2.225;-0.11135666779278;0.1445611906955088;199.0;1.0
0.4498648312987512;-0.5617906745054333;0.3688118811881188;-0.2118809249975089;0.1405193823674596;210.0;1.0
0.2642418105437324;-0.4807853231252317;1.0;-0.1688390545424355;0.1120935003106123;202.0;1.0
0.4781403060146967;-0.6925736622216818;0.9078947368421052;-0.2573317017109504;0.1518531718453897;204.0;1.0
0.4694930551389591;-0.3912532653795469;1.244186046511628;-0.4054773289787771;0.156455793985562;210.0;1.0
0.5738704468422094;-0.4500346757889696;1.0266666666666666;-0.0968321097993388;0.1492650111549817;211.0;1.0
0.4442357594244885;-0.5615253222783558;0.9383561643835616;-0.2290390399956228;0.141350867611131;203.0;1.0
0.3742109302714066;-0.2730982065267694;0.7894736842105263;-0.1830558987301667;0.1303643439933376;207.0;1.0
0.5230033704331245;-0.4479813244967162;0.3743455497382199;-0.0644190863093549;0.0992455666398179;454.0;1.0
0.6140121495378519;-0.3654316168934065;2.848920863309353;-0.0769297821144041;0.1328093538520454;365.0;1.0
1.3414376518142623;-0.2073380220413262;0.9385964912280702;-0.2184861365411189;0.2986355067564682;120.0;1.0
0.748512445101434;-0.372988637842535;0.993103448275862;0.0311684475808628;0.1529384095464163;196.0;1.0
0.3569669388156017;-0.632746572001049;0.4073033707865168;-0.2612397247340528;0.1279686114625356;311.0;1.0
0.6677486849628631;-0.617939031649319;0.9536423841059604;-0.2334230181378493;0.1710222027848608;204.0;1.0
0.1784837248279468;-0.5386620854024712;1.037037037037037;-0.3114885614761555;0.1070246818993339;182.0;1.0
0.4382095532953091;-0.3521617314341873;0.9930555555555556;-0.0237150218354037;0.1226645610810068;200.0;1.0
0.2678320112155193;-0.4356985380503963;2.7007299270072997;-0.1772490143897723;0.0952821125240669;324.0;1.0
0.6575517072931224;-0.3884722616017239;1.0068027210884354;-0.0350221056697211;0.1267222025686818;352.0;1.0
0.7156081364137908;-0.2723678937008966;0.558974358974359;-0.2585064361128311;0.1543793754012428;211.0;1.0
0.5308248341467209;-0.5780678455206911;0.912751677852349;-0.1990831496622205;0.1524960270791974;213.0;1.0
0.4212138337486119;-0.5604296184547899;2.5985915492957745;-0.1739250699798412;0.1437373051779605;206.0;1.0
0.5760164235743784;-0.5827423820423314;0.9342105263157896;-0.1439026537567235;0.1555110569150617;208.0;1.0
0.2358045191882521;-0.5819974210934734;1.0212765957446808;-0.2850192353141907;0.102870319791073;358.0;1.0
0.4245216243533938;-0.629204532998155;0.9668874172185432;-0.2621906769768504;0.1515365712977807;205.0;1.0
0.5343063165243694;-0.595541836417069;0.9285714285714286;-0.1800063639468709;0.1434817172914403;208.0;1.0
0.6992905158313256;-0.3933650034161121;1.0069444444444444;-0.0624742795030015;0.1589523696931343;196.0;1.0
0.3254214598668075;-0.4952308673610696;1.034965034965035;-0.1749004752766803;0.125734519495979;199.0;1.0
0.335682785575326;-0.4342487169934219;1.0277777777777777;-0.1916479698669063;0.0919965046178458;381.0;1.0
0.6040096913923709;-0.6252263651336831;1.028169014084507;-0.2328584401628919;0.1672555154233156;205.0;1.0
0.3203559941185506;-0.5077835419387959;1.0136986301369864;-0.1457266269618507;0.1231990918878612;203.0;1.0
0.521051242695179;-0.5015494495215052;1.9496402877697845;-0.140419460015764;0.1078802457914727;546.0;1.0
0.4376586511938852;-0.5927044972139145;0.4698412698412698;-0.2375065989498724;0.1476075948671152;210.0;1.0
0.62988393510172;-0.5912472881528776;0.3815789473684211;-0.1645677017919398;0.1605262238155506;199.0;1.0
0.5516653235661536;-0.377250200522264;2.060606060606061;-0.1590735909648543;0.1186126173171119;357.0;1.0
1.6363658115462345;-0.3680272937413362;2.087378640776699;-0.228316654771319;0.3077146225609733;209.0;1.0
0.3301310805361889;-0.5344907307907738;0.9602649006622516;-0.1995493849540241;0.1271337679545767;208.0;1.0
1.6853329068677765;-0.3938170947417569;2.1683168316831685;-0.2152492016361344;0.3302991344521764;205.0;1.0
0.4960942592380471;-0.3833900984284768;1.375;-0.4009096413929394;0.1403884803062135;220.0;1.0
0.830150120533291;-0.4319548757460244;1.0408163265306123;-0.0048368851236106;0.166148924213808;206.0;1.0
1.295898477617009;-1.1442943274903037;1.1704545454545454;-1.1619928558089134;0.3917891153731725;240.0;1.0
1.1442563332130649;0.1384096702189254;2.358695652173913;0.086178093187901;0.1544377883694188;208.0;1.0
0.3426122765826385;-0.5605908580789196;2.880597014925373;-0.1865521180530701;0.1354970632782622;204.0;1.0
0.7641179202704054;-0.344830123294959;1.7285714285714286;0.0341794573277211;0.1556061457308638;199.0;1.0
0.8887996850445457;-0.3523182217559201;1.0;0.0475459533802602;0.1586585174882047;204.0;1.0
0.4356262911635066;-0.3949099409001662;0.9066666666666666;-0.0517755349010901;0.1066107773957159;440.0;1.0
0.3029178638664827;-0.5193484161505125;1.0431654676258992;-0.1980371513994896;0.1272596538201245;194.0;1.0
0.525797176758867;-0.4487947671502547;0.9605263157894736;-0.0890301484319321;0.1315533215713861;206.0;1.0
0.5317943301005039;-0.5530182098960433;0.407103825136612;-0.1463297711119714;0.1478690289618188;196.0;1.0
0.4193040147917236;-0.6709390321790542;1.006896551724138;-0.2504667467626272;0.1588862173722179;202.0;1.0
0.3130393147816945;-0.6429002162774149;0.3929539295392953;-0.2304796137476042;0.131364474182225;200.0;1.0
0.5514915363279146;-0.5573236950943117;0.9448275862068966;-0.1658925817906962;0.1578210014497267;207.0;1.0
0.4557413949024717;-0.6367771880685749;0.98;-0.2197769498504465;0.1468939613911982;203.0;1.0
1.2799115253455655;-0.2736545189982551;1.015384615384615;-0.2852667929120992;0.2617484480763257;141.0;1.0
0.7260537947719283;-0.5276044199638102;1.0067567567567568;-0.1322758820666913;0.1639369807127547;211.0;1.0
0.944137648746994;-0.4291724607742699;1.029940119760479;-0.3525104403605394;0.1608077234402707;227.0;1.0
0.4889461537378338;-0.4763451828567719;0.9797297297297296;-0.1553913986615265;0.1232906588079625;370.0;1.0
0.4725521200354479;-0.5378372920287325;0.9863013698630136;-0.163589016276934;0.1478920495216649;203.0;1.0
0.4165157090080616;-0.5910937442806826;1.0066225165562914;-0.2299500688916237;0.1416468601933598;202.0;1.0
0.4562824712418358;-0.4842441052489945;0.3868421052631579;-0.1818742987988754;0.130658879876831;362.0;1.0
0.6286313895822387;-0.6553726573771735;0.9731543624161074;-0.2657021257745843;0.1430575397394422;372.0;1.0
0.9086433264328924;-0.0848116783339749;0.4365482233502538;-0.1346601763761528;0.1485078516481025;192.0;1.0
0.7052246932973024;-0.4832372650238195;1.0;-0.0211773440979084;0.1528309282761902;206.0;1.0
0.4235697293706166;-0.583415261561041;0.3449883449883449;-0.2262280247311581;0.1125328651575808;367.0;1.0
0.7086337368188655;-0.3217042505434342;0.4159544159544159;0.0487281943625667;0.1551193559085089;201.0;1.0
0.7080080395794044;-0.6205748792652733;1.9444444444444444;-0.2538796526124609;0.1787698259112193;214.0;1.0
0.5577999378779288;-0.5407185489490931;1.0547945205479452;-0.1233276777106059;0.1494466778254158;212.0;1.0
0.5752903163630569;-2.576826280909708;0.9770642201834864;-1.621081134865368;0.9315043398762396;135.0;1.0
0.5512261590557943;-0.461777192730857;0.9444444444444444;-0.1258746919622936;0.15204703561462;197.0;1.0
0.6190690322685501;-0.4690606172136486;0.3860589812332439;-0.0779415159847515;0.1426551035475677;198.0;1.0
0.6954414382731968;-0.6054615958429295;1.013986013986014;-0.1462462844978919;0.1669841765703175;205.0;1.0
0.4601085930521692;-0.4516686010700989;1.006896551724138;-0.0748055313749171;0.1281021072576267;205.0;1.0
0.4127402463945948;-0.460076871573694;0.392;-0.1057345366735936;0.099886868890974;369.0;1.0
0.2528406212296793;-0.4541735995679324;1.0067567567567568;-0.1363814172472441;0.1155114847732731;198.0;1.0
0.5456997329249623;-0.3989621868935852;2.764705882352941;0.0085713685103716;0.1341657076770815;206.0;1.0
0.4570078048777138;-0.5809503201385541;0.9930555555555556;-0.1962679012052828;0.160046766656841;209.0;1.0
0.4317395290924777;-0.5539190595900474;0.9657534246575342;-0.195104684039793;0.1216001683059037;377.0;1.0
0.4560333664705774;-0.5414739927597865;0.9006622516556292;-0.1724818025482453;0.144154679062558;200.0;1.0
0.6053995275545626;-0.3136746892323054;0.9794520547945206;0.0303576514127058;0.1400163224658435;199.0;1.0
0.7962232700105978;-0.379674169910181;0.9866666666666668;0.0401762891841305;0.1552117807778453;209.0;1.0
0.5858157583074438;-0.4982808772221362;0.9466666666666668;-0.1871032096281819;0.1164211270118171;400.0;1.0
0.5556170911903249;-0.5688426167596143;1.0;-0.1788715381598866;0.1563844267985322;207.0;1.0
0.8617665546345481;-0.5214882819965522;0.9814814814814816;-0.3843027459412543;0.1580041231655259;223.0;1.0
0.7866116800706164;-0.3101510885116899;0.98;0.039332465763216;0.1499239223814723;203.0;1.0
0.6370045498474148;-0.461856465186627;0.9133333333333332;-0.0513718300605653;0.1422069592603328;200.0;1.0
0.4696437648615141;-0.5643777523324086;1.0208333333333333;-0.1567095536411468;0.1435338405022915;206.0;1.0
0.7790401201002554;-0.0207120436894105;2.168539325842697;-0.0108553319085233;0.1286270391525271;144.0;1.0
0.5618664960687794;-0.5174515544148753;1.704225352112676;-0.1480681229969902;0.1490523079117523;210.0;1.0
0.6276856072269685;-0.5262215882221765;1.387900355871886;-0.1713515003892289;0.1530523479140799;204.0;1.0
0.505496141034153;-0.6414702731540383;1.0068027210884354;-0.2003076254852799;0.1532762464171827;206.0;1.0
0.3248653731089297;-0.6482286640548391;0.972972972972973;-0.2573020753491524;0.1408032106039657;206.0;1.0
0.3834634363111823;-0.4655827650341184;0.2681159420289855;-0.0955773685147581;0.1015909028163079;369.0;1.0
0.5365860691298157;-0.2472204764391045;2.47;-0.2613352437437257;0.1994644996366082;213.0;1.0
0.7007426031429711;-0.510509505080493;1.0;-0.1062010094809313;0.1718983034353773;196.0;1.0
0.7177816196873492;-0.5319146941945062;1.0067567567567568;-0.064240119205553;0.1595813096312376;208.0;1.0
0.4324641039743883;-0.5310369184635959;0.9041095890410958;-0.1755286467124192;0.1398024006260473;205.0;1.0
0.675285380521165;-0.7415139341956689;0.398921832884097;-0.2222737608398268;0.1854701807241107;204.0;1.0
0.5535331346019786;-0.5770610513570759;1.0136986301369864;-0.1538608916214395;0.1510038158980595;206.0;1.0
0.7408610352400736;-0.4750704211426548;0.9054054054054054;-0.0712334484939009;0.1653249702590298;208.0;1.0
0.6095039756495014;-0.4626708640610756;0.3693467336683417;-0.056377872819335;0.1518938350376393;197.0;1.0
0.746145338542912;-0.2563757815441713;0.9292035398230089;-0.2662294995856815;0.1461433653968665;214.0;1.0
0.6906215999593492;-0.3620444475173204;1.0205479452054795;-0.0009391597878521;0.1524769341009669;204.0;1.0
0.6213531232453462;-0.5491620216038264;0.2447665056360708;-0.14583685029569;0.1661872074432356;207.0;1.0
0.5551002885582624;-0.4475963921862826;0.9379310344827586;-0.0986172804746225;0.1486775032066245;208.0;1.0
0.6390700271054361;-0.0898989212370325;2.4148936170212765;-0.2021297305566686;0.1288233960233714;163.0;1.0
0.5344307983572401;-0.6549962090049535;0.9932885906040269;-0.2034463466062941;0.1527368942647239;202.0;1.0
0.955622338329662;-0.4013178380860294;0.8712871287128713;-0.2819624001415635;0.2212191875549413;198.0;1.0
0.7430071608013457;-0.334892813340873;0.9805194805194806;0.0627384870503445;0.1489855568443529;205.0;1.0
0.3492615731164321;-0.5403464897395165;0.3678756476683937;-0.1854498990618579;0.1355765445556747;202.0;1.0
0.7286382111454671;-0.5668056864538012;0.5;-0.1388230797350763;0.1604207756526597;203.0;1.0
1.0929073109387677;-0.103030852482442;0.9555555555555556;-0.2202759921972874;0.2403552773575571;161.0;1.0
0.8053622791579607;-0.4348926203294748;0.2483333333333333;-0.0162311890385226;0.1662429535303763;207.0;1.0
0.3451489418014321;-0.5668165574977947;1.0069444444444444;-0.2204347494274605;0.1306537865818852;202.0;1.0
0.5638781615875041;-0.4563031256736131;0.3814432989690721;-0.0475908769564035;0.1494183638677362;213.0;1.0
0.6697699153276465;-0.6049544659708411;1.0;-0.144212832896579;0.10868681207278;478.0;1.0
0.3632023813332321;-0.5526190092943919;0.9929577464788732;-0.2217273640171994;0.1356464177887061;193.0;1.0
0.8600013694478642;-0.3506750091836427;0.9864864864864864;0.0580836591385437;0.1618631232200506;204.0;1.0
1.7297594412336077;-0.3108899827547472;0.6869565217391305;-0.1356038264282125;0.2507704307712538;286.0;1.0
0.6619028185760176;-0.554592876334004;0.4060773480662983;-0.1388643519286886;0.1685839705780374;206.0;1.0
0.2223435883360343;-0.5730167613377756;0.9867549668874172;-0.1545997411543843;0.146579943101156;206.0;1.0
0.3766862461560035;-0.5372100368531336;1.049645390070922;-0.1971437523041937;0.1379950237795732;201.0;1.0
0.6617689066740438;-0.5791024937702526;0.4049586776859504;-0.1521109401876764;0.156662763386789;207.0;1.0
0.3820378765742535;-0.6265248012735833;0.1655328798185941;-0.2722666850738774;0.1464930830454457;210.0;1.0
0.5240424324730127;-0.5160434641468716;0.9931506849315068;-0.192147169142909;0.0883235015645785;729.0;1.0
0.4821966584030911;-0.6061004696169672;1.034965034965035;-0.20346117131036;0.1546533112383146;202.0;1.0
0.4028747154108137;-0.4741716032163133;0.4239766081871345;-0.1168575918519708;0.100683951586871;379.0;1.0
0.7902492309835789;-0.0701175904122663;0.9921259842519684;-0.1326090336541429;0.127962569392911;235.0;1.0
1.267416573523634;-0.176557539713775;0.9047619047619048;-0.2199927590245979;0.2876552732729452;118.0;1.0
0.3662542157551747;-0.1163205944458277;1.1722222222222225;-0.1591885067000572;0.1222306578644316;167.0;1.0
0.5383210916136187;-0.4449508568538927;0.9513888888888888;-0.1656992729194518;0.1206733344588673;381.0;1.0
0.6156836010382432;-0.3669231681831783;0.8947368421052632;-0.0135232329369423;0.1117657098872077;363.0;1.0
0.708751066170455;-0.4307011626964718;1.728706624605678;-0.0975032578715782;0.1483556225517577;212.0;1.0
0.631463628596298;-0.5049053630382627;1.0070422535211268;-0.0963376655052181;0.1522178385127421;207.0;1.0
0.7026453857370898;-0.4180872971449739;1.9867549668874167;-0.0460572848482162;0.1518308216505507;214.0;1.0
0.3746961555932935;-0.490414938813161;2.349557522123894;-0.1614109933530898;0.1310613282245136;195.0;1.0
0.3512377306858398;-0.2851493340156722;0.9701492537313432;-0.1778743931890075;0.0998294079427999;149.0;1.0
0.6522327483093162;-0.5268611015618618;0.9664429530201344;-0.1271347055327453;0.1594046653768482;201.0;1.0
0.479647698353282;-0.5041191074211934;0.3844086021505376;-0.1000307363940702;0.140428531341941;200.0;1.0
0.8577138787164711;-0.3953136545843468;1.3773584905660377;-0.094271057181317;0.1810856103428804;170.0;1.0
0.5636513696572474;-0.5281522971346446;4.846808510638298;-0.1756932878288731;0.1084712131331967;510.0;1.0
0.719041691950276;-0.2778617020398559;0.3945945945945946;0.076499982874951;0.1434176390695098;201.0;1.0
0.8082414258301935;-0.2445075396784876;0.4076086956521739;0.0924783831667977;0.1552749009911392;203.0;1.0
0.6477631015999066;-0.2139966165827501;1.8;-0.1917330796897342;0.1476680043879311;217.0;1.0
0.5254944877044085;-0.6004736859054509;0.9256756756756755;-0.1997811192925511;0.1500097276406703;195.0;1.0
0.4980253950086329;-0.6185065130292497;0.2439418416801292;-0.2119828515753124;0.1557476232356671;212.0;1.0
0.6042132889887167;-0.3124492053687561;0.9930555555555556;0.0577882859425512;0.1412307643858944;200.0;1.0
0.9554862802743476;-0.0597476824354063;0.5604395604395604;-0.0778062586908797;0.1217832567174539;215.0;1.0
0.6557190218750705;-0.273525157195866;1.323943661971831;-0.2507320990570941;0.2373347820847584;114.0;1.0
0.7832684526987912;-0.188842017479197;1.2173913043478262;-0.21305833618903;0.1686653441787668;161.0;1.0
0.8726636458952508;0.0153778828763832;2.1954022988505746;0.0063034135701147;0.1605796262592901;106.0;1.0
1.407957084116761;-0.1977453656457294;0.9316239316239316;-0.1683702546498811;0.2402182779284844;185.0;1.0
0.5889052093213814;-0.5184012308782563;0.9933333333333332;-0.1288096609286255;0.1542669621325839;205.0;1.0
0.89251150111273;-0.5407097647100247;0.6024844720496895;-0.3077600083704435;0.2158287951145154;240.0;1.0
0.4208648599804764;-0.0493402282004472;1.0909090909090908;-0.0759240887770229;0.0999255468368244;156.0;1.0
0.0555926860510109;-0.6387902341697881;0.96;-0.308433717336586;0.1205617421808621;202.0;1.0
0.8354586150868125;-0.2763097090687167;1.0551724137931036;0.0770108204382071;0.1586173521406946;206.0;1.0
0.9938501794073792;-0.4357124989440211;1.0047846889952152;-0.2652722569498094;0.2017579645799003;232.0;1.0
0.9464550956757872;-0.03;0.9550561797752808;-0.1315461060947444;0.146767471926568;228.0;1.0
1.1228663056440684;-0.3538801134088021;0.9953051643192488;-0.2663491899179857;0.4584286238963216;124.0;1.0
1.9850617683312928;-1.1515725529174752;1.0267857142857142;-0.4679843585554112;0.5268045196239068;154.0;1.0
0.6715199567134902;-0.4553597208221716;0.9932432432432432;-0.1024576996714936;0.1526079679214467;202.0;1.0
0.4487055108493828;-0.6102861220198057;1.0202702702702702;-0.2271545618116008;0.1562227734517383;207.0;1.0
0.6059036193413027;-0.3866802367116284;0.9551282051282052;-0.0436513541257011;0.1411604835959415;211.0;1.0
0.6013718717790336;-0.3729420237424525;0.9931506849315068;0.0002547108157501;0.1092700088938965;392.0;1.0
0.7662937942701271;-0.4904565303766817;1.6277372262773722;-0.091729140617455;0.1610962439743831;207.0;1.0
0.5471299327229564;-0.4301576293253617;0.9932885906040269;-0.1277389404030957;0.1102786937932277;400.0;1.0
0.676035624303242;-0.0608948930619952;1.0694444444444444;-0.0953870607433413;0.1490144641465226;164.0;1.0
0.521186737651895;-0.4344983709464253;0.9133333333333332;-0.0899758920975032;0.1438615351381541;201.0;1.0
0.5278254593387673;-0.4760106397078835;0.2715355805243445;-0.0980599346570537;0.1339361236691395;193.0;1.0
0.5053562846078239;-0.713231913587459;1.0333333333333334;-0.2581127003078238;0.1299046156833352;380.0;1.0
0.560973525601917;-0.6452756390168156;1.0067114093959733;-0.233723557111709;0.1602728527601315;209.0;1.0
0.4130155664630165;0.1502503729802517;0.9901477832512317;-0.0617195251480225;0.19484023889665;179.0;1.0
0.5402786174725773;-0.4658875059625648;0.9801324503311258;-0.0638422033114881;0.1345402954677153;204.0;1.0
0.6313860251962683;-0.4261669715998058;2.6906474820143886;-0.0914322056141262;0.1626978583370541;201.0;1.0
0.694873850090347;-0.26;1.0236686390532543;-0.2768233626810544;0.1500768037793402;165.0;1.0
0.6010355156866797;-0.5819462766545207;0.9517241379310344;-0.1961685407244721;0.1522739335434054;204.0;1.0
0.8789719151073112;-0.5672618326172741;0.9732620320855616;-0.4828901963325032;0.2780356115019197;107.0;1.0
0.5887662327939827;-0.5785160656275506;0.9933333333333332;-0.1762884123308296;0.1606825128681295;208.0;1.0
0.3642669441037398;-0.5342628608786174;0.4027397260273972;-0.1824776483435306;0.1382753379021635;198.0;1.0
0.6977519165473741;-0.2137805580011704;1.9176470588235293;-0.1903268859646591;0.1429062405042723;142.0;1.0
0.4375266213961639;-0.5322558641577405;2.4782608695652173;-0.1909912372483777;0.1148402496112088;360.0;1.0
0.7387079630813709;-0.5754233945714914;0.8896103896103896;-0.1464254908330997;0.1808747165600088;204.0;1.0
0.341413831691462;-0.5788468959187967;2.345864661654135;-0.239540379791278;0.1409270736506967;208.0;1.0
0.562227696549439;-0.6436889529324292;0.9861111111111112;-0.228671168751693;0.1642443445964384;206.0;1.0
0.9058228803797184;-0.3766159996534838;0.9869281045751634;-0.3126223886471964;0.1481648361738564;207.0;1.0
0.8189469166011524;-0.3207487448463565;1.0134228187919463;0.0394839788873877;0.1627312769502614;200.0;1.0
0.9334978810984236;-0.3182113083481264;0.9930555555555556;0.1050010046041533;0.1664875376871381;204.0;1.0
0.4573638166686469;-0.4528040471250866;0.3753213367609254;-0.0805246707282596;0.1368011389977015;205.0;1.0
0.7236648608985136;-0.5351996053108203;0.9668874172185432;-0.1580469532958926;0.1643682749822066;203.0;1.0
1.40538128158673;-0.2804142863741417;1.011111111111111;-0.1994867362683775;0.3061831820650617;121.0;1.0
0.7522500942758457;-0.5084540577317342;0.2439418416801292;-0.1493791514612547;0.1622065450995826;209.0;1.0
0.6044481654767255;-0.5303211852947451;1.0205479452054795;-0.1439200411125964;0.1540744528768526;202.0;1.0
0.6998342602315651;-0.4973626042591541;0.9797297297297296;-0.118089880496721;0.162367814673931;204.0;1.0
1.6356964496464204;-0.442213374055585;1.1160714285714286;-0.2598048340080079;0.3003839999638259;227.0;1.0
0.7472183243683891;-0.4197406471952838;0.958904109589041;-0.028776074084401;0.1612954022343552;206.0;1.0
0.6341863631516588;-0.3090736459604606;0.9419354838709676;0.012139221499969;0.1398044897321415;202.0;1.0
0.8686639011274949;-0.5651147431121383;0.9133333333333332;-0.0874038303319423;0.1842950377745857;200.0;1.0
0.5386818829023718;-0.460294393952623;0.9931972789115646;-0.1174672212986762;0.1365115662153521;205.0;1.0
0.6999330815178524;-0.3142637443886444;0.9305555555555556;0.037792590436183;0.1322730459778473;200.0;1.0
0.8130341544788977;-0.5138515233884489;2.631578947368421;-0.1086575059417936;0.1798574605898838;199.0;1.0
1.4664755625263122;-0.7758739408333073;1.1451612903225807;-0.7588505098840679;0.363721883071137;234.0;1.0
0.4145036878025872;-0.4482755156268818;1.0273972602739727;-0.1094153648770666;0.1759903268719508;196.0;1.0
0.4990751018953289;-0.3233382927859262;0.3935860058309038;-0.0147360730603464;0.101361185788471;361.0;1.0
0.7394339179162649;-0.4254747341079289;1.0;-0.0883988254677068;0.1459016189086118;196.0;1.0
0.7354963454555622;-0.3830073492901807;1.006896551724138;0.0259591795519422;0.149894690231918;198.0;1.0
0.6279855493858796;-0.6238025273312904;1.0134228187919463;-0.1851024419202035;0.166771755787244;209.0;1.0
0.4439585770123545;-0.3133531835288541;0.3104166666666667;-0.0244867267110279;0.1009763894549193;356.0;1.0
0.518618601368493;-0.4245718776261856;0.3803191489361702;-0.005657729050005;0.1418630581647099;204.0;1.0
0.2671002566483637;-0.75432599261035;1.0704225352112675;-0.3233663259927985;0.1372127823456268;204.0;1.0
0.5444491863318374;-0.5381309124744568;1.0134228187919463;-0.171140178832376;0.1553205615155984;211.0;1.0
1.7431426597221704;-0.279955243443559;1.0136986301369864;-0.1610664378168947;0.2545753250127743;248.0;1.0
0.5069689393366283;-0.5263868837266854;1.02;-0.1893357065052192;0.1515797945511955;208.0;1.0
0.6567621265838066;-0.4783716130426013;1.0272108843537415;-0.0208727606448338;0.1517901965987134;207.0;1.0
1.016164605996411;-0.0666651306940966;1.0784313725490196;-0.0121804204100961;0.1503879562261599;216.0;1.0
0.5444346663049677;-0.5290197158018475;1.4;-0.1841830702022101;0.1489640337026227;201.0;1.0
0.6021250049500629;-0.6319862745885696;0.945945945945946;-0.1698197920494406;0.1624401818949652;206.0;1.0
0.7137313705324586;-0.5029027270234219;1.0067114093959733;-0.1271208623157116;0.193410395645444;205.0;1.0
0.420386853237909;-0.5868612277086508;1.0067114093959733;-0.2154111195761607;0.154283532327929;211.0;1.0
0.945125341755036;-0.0451108064895849;1.1363636363636365;-0.0957202459511633;0.1872043728048733;215.0;1.0
0.5685575761307976;-0.3018153793215454;0.908450704225352;0.0180675543933771;0.1279674789441948;193.0;1.0
0.256197178350722;-0.4767403865116136;0.9666666666666668;-0.2177379928166003;0.0953842246997648;376.0;1.0
0.6080840396106271;-0.551279129794306;0.9802631578947368;-0.1936273455395198;0.1604174957313515;205.0;1.0
1.504352012113733;-0.121137464184193;1.010989010989011;-0.1750860538218434;0.3001920745420856;124.0;1.0
0.8800087107652729;-0.3071656598468307;1.0782608695652174;-0.0187048996623688;0.1685608935312615;170.0;1.0
0.7596381095784331;-0.0056150299223974;1.0182926829268293;-0.0694095396709893;0.1236433795124254;215.0;1.0
0.4349784132134768;-0.5491898685952836;0.9383561643835616;-0.2032983011397159;0.1197525037470205;372.0;1.0
0.6406475826574578;-0.5898684290041404;0.9205298013245032;-0.1626247881078757;0.1623520979743817;210.0;1.0
0.8372114289810291;-0.4715470612339575;0.9171597633136096;-0.3761605971615863;0.2270710741435873;158.0;1.0
0.694560919470254;-0.1105330102913302;2.237113402061856;-0.1043963085425559;0.103845181135649;210.0;1.0
0.1070189691948617;-0.1097957722295038;1.06993006993007;-0.2373824080042317;0.2289032311492046;202.0;1.0
0.8182468188699565;-0.4384080173782377;0.9805194805194806;0.0245281457340541;0.1622702312486349;209.0;1.0
0.6262954742444561;-0.3834519579849874;1.0;0.0589696107291159;0.1458116051454335;200.0;1.0
0.9126717269750096;-0.5211193788031234;1.2884615384615383;-0.1017549088784289;0.1889557990939441;200.0;1.0
0.4107524732242529;-0.7115802367677284;0.9794520547945206;-0.2563203573901659;0.1546820370139583;206.0;1.0
1.28950497013661;-0.2306119290775836;0.9772727272727272;-0.2587247440651753;0.3061580079867;120.0;1.0
0.7306360544447398;-0.0173834620012213;1.0191570881226053;-0.1324011190002272;0.1788571077077564;243.0;1.0
0.4763212999038814;-0.576525090024625;0.912751677852349;-0.1844021309049277;0.1575869977522772;206.0;1.0
1.1870475027884808;-0.1434854642255536;1.8982300884955752;0.2842832634166718;0.1660322373472004;204.0;1.0
0.4745774099661925;-0.7006830201242944;0.178359096313912;-0.2649841892439609;0.1018544596263116;538.0;1.0
0.3729622297396668;-0.4602142930925322;0.993006993006993;-0.1281706169732435;0.0895460455319274;374.0;1.0
0.4322998057382662;-0.3084687441200199;1.0422535211267605;-0.2184450155873239;0.0924696476505576;901.0;1.0
0.5133838399672537;-0.3941997676934263;0.9266666666666666;-0.0855636696436124;0.106466059934569;371.0;1.0
0.8882682816705505;-0.358283548068783;1.146341463414634;-0.1515362225098314;0.2599784551039393;100.0;1.0
1.0455076702881076;-0.2280314495363367;2.2028985507246377;0.149338802680169;0.1720901099455603;196.0;1.0
0.5785517391020935;-0.3529929896416171;0.5;-0.3078846876558171;0.2064985036952717;189.0;1.0
0.4906876324267041;-0.5125987783875247;0.9455782312925172;-0.1602152532071247;0.1440432965933188;198.0;1.0
0.5457674671475299;-0.5618903433255258;2.661654135338346;-0.1732298705253356;0.1505264710988486;210.0;1.0
0.4812164112904998;-0.5592588515461469;0.9863013698630136;-0.1714960283655829;0.1521396668058754;203.0;1.0
0.8375208243071791;-0.3444415924444993;1.0205479452054795;0.0666461352840271;0.1544096409730818;210.0;1.0
0.5862669123345003;-0.3894091913915722;0.1657142857142857;-0.0187892415601746;0.1390464746791787;199.0;1.0
0.4707511780129068;-0.4556997035627949;2.1041666666666665;-0.1264422569706589;0.1457891910440582;209.0;1.0
0.6381132009422458;-0.6580789193835347;1.0;-0.2058699394101164;0.16000912389327;204.0;1.0
0.6860300195991724;-0.3665680357286388;2.288793103448276;0.0245101655504171;0.1476788231741571;205.0;1.0
0.5583279752411698;-0.5937982428848811;0.9266666666666666;-0.1728730844345155;0.1496551893200878;206.0;1.0
0.5516240450366477;-0.5123988258788811;0.9517241379310344;-0.145539278273689;0.1046422046656031;466.0;1.0
0.6638378430360471;-0.2700196739282107;1.1358024691358024;-0.2709002288711216;0.1555749146880147;137.0;1.0
1.3533988479499686;-0.1753109341271971;1.0843373493975903;-0.2184613041030005;0.3037030778392525;121.0;1.0
0.8170105043204656;-0.3497394585815796;0.9731543624161074;0.0546890049571483;0.1575722717719691;209.0;1.0
0.6816503747249177;-0.578009550203026;0.9251700680272108;-0.1688491170854446;0.1551248897712975;204.0;1.0
0.2488015919159505;-0.357647529179584;2.673758865248227;-0.1436944963097509;0.0912257924918133;324.0;1.0
0.9237389442431496;-0.2770389935215738;1.1221374045801529;-0.0201300936616507;0.1577210723511099;229.0;1.0
0.651778489122149;-0.3352254822489372;1.0135135135135136;-0.0402161637624811;0.1277687269765513;347.0;1.0
0.5190457055279313;-0.4730229634425526;0.2602495543672014;-0.0743425270931417;0.1392036623435477;206.0;1.0
0.5132437498270198;-0.3831914058523278;0.9931506849315068;-0.0622525743914959;0.1094041068568793;335.0;1.0
0.5379702036657948;-0.7136451249015556;3.33195020746888;-0.2701684075752286;0.1559761861447767;210.0;1.0
1.3009880706788213;-0.2666188385340879;1.2149532710280373;-0.2598140277650733;0.2769071770113334;130.0;1.0
0.7531053979728326;-0.2265300850085604;1.0206896551724138;0.0288084909623619;0.0865638518950461;683.0;1.0
0.6143558929376535;-0.6326290034370337;2.310344827586207;-0.147327701351998;0.1667725162150406;205.0;1.0
0.2854396605382301;-0.6047583937249186;0.3785166240409207;-0.2597975109370237;0.1271264552643566;206.0;1.0
0.6375270337186796;-0.3802324217479046;1.7932203389830508;0.0026993232171633;0.1486817064066048;208.0;1.0
0.6280050758069993;-0.5016522801376122;0.4622641509433962;-0.4606219071388097;0.1783476771417122;139.0;1.0
0.5802328223813533;-0.4337526133228588;2.289855072463768;-0.1040467882911152;0.1233898113015925;375.0;1.0
1.3673543463136908;-0.2142644741295703;0.9333333333333332;-0.2558344490419554;0.333200749868569;112.0;1.0
0.5288672037773291;-0.4088765461091103;1.7821428571428573;-0.0532354537474338;0.1752813420849567;206.0;1.0
0.8367583185423941;-0.3318379134221638;1.0277777777777777;0.0342133351857934;0.1703324642493368;210.0;1.0
0.8096072029985981;-0.4865026524989063;1.0;-0.0557860786437114;0.1652960042107723;189.0;1.0
0.9494537692700512;-0.2144249840129772;0.6197183098591549;-0.1933506746176178;0.1871012713817862;142.0;1.0
0.7817196753791749;-0.3937630629977747;1.0343137254901962;-0.3029683285897245;0.2103704264836683;108.0;1.0
0.5789929145778212;-0.6258552100416086;0.9934640522875816;-0.2176169589824969;0.1517219002190069;214.0;1.0
0.3843783805584715;-0.4469208947695454;2.688405797101449;-0.0782444092379286;0.1297353467030881;198.0;1.0
0.4791577275579088;-0.6198843766480493;2.2612244897959184;-0.2409233537148014;0.1037601818809961;521.0;1.0
0.5121775907819631;-0.1032935884118786;1.093167701863354;-0.1282755304414272;0.0993481470105995;209.0;1.0
0.4906535171644727;-0.590384111629263;0.9668874172185432;-0.1735035684757054;0.1428004491375071;211.0;1.0
0.4544229745108143;-0.0561405319782638;1.8375;-0.0923430006912364;0.1838730466905557;210.0;1.0
0.6858894403909089;-0.5568575158947037;1.0136054421768708;-0.1652732359809738;0.16263764446239;196.0;1.0
0.5886356341620629;-0.542367447145214;0.986013986013986;-0.2004947478583009;0.1542441064455001;208.0;1.0
0.6604662784198254;-0.4783670223808006;1.0266666666666666;-0.1329064666877338;0.1679279577387491;204.0;1.0
0.3753839633567726;-0.6001040197843084;2.2992700729927007;-0.2685837695268804;0.1119341755056107;370.0;1.0
0.7570247940437477;-0.5116385466973691;0.8513513513513513;-0.1099337342622786;0.1656099978877922;204.0;1.0
0.5545604571206603;-0.507527517499716;2.7007299270072997;-0.1495881784163158;0.1059645875705829;383.0;1.0
0.7905009569229092;0.4648523882653448;1.2531645569620251;-0.1745932121033155;0.2826525447713703;233.0;1.0
0.6366953419659012;-0.5069205407514487;1.0136986301369864;-0.1118127049953885;0.1607868674181681;199.0;1.0
0.623137522451561;-0.1591002694101115;0.8579881656804734;-0.2234925145714285;0.2087356380831115;212.0;1.0
1.1054359641686773;-0.4031126006185205;0.3236514522821577;-0.0680307998196525;0.2117759853856654;192.0;1.0
0.6407709799660439;-0.3700306080108901;0.3712121212121212;-0.0126680150237425;0.1475212435194443;197.0;1.0
0.5726124289584931;-0.2281242187253321;2.264367816091954;-0.2424471960118576;0.1117851908130578;167.0;1.0
0.3815718148941952;-0.4355867822989044;0.45565749235474;-0.1683140446418117;0.1311029635651706;350.0;1.0
0.5059229433594501;-0.5110896372580085;1.013793103448276;-0.145792859951657;0.141102359568558;200.0;1.0
0.7465934453757063;-0.4056176227722005;2.664233576642336;0.011920731259365;0.1519004638044226;195.0;1.0
0.6193936643515451;-0.4536862201597798;0.9395604395604396;-0.468304767252325;0.2222043399758504;103.0;1.0
0.2170267313927475;-0.5105991647997433;0.4798657718120805;-0.1715158715048794;0.118833537531965;200.0;1.0
0.456906860818098;-0.5946074747783885;0.9536423841059604;-0.1959740311070979;0.1504156580579827;213.0;1.0
0.383907832650791;-0.5536996601176979;1.0;-0.1904252960441164;0.1392865684949789;212.0;1.0
0.6110818972549258;-0.4120726867903183;1.0202702702702702;-0.1145972645530136;0.1491243515253623;200.0;1.0
0.7546791190432208;-0.3004557014855802;1.027972027972028;0.0664467923224785;0.1563159551911217;198.0;1.0
0.4248586827686476;-0.5184954717283046;0.3403263403263403;-0.223333799744552;0.121796965906343;380.0;1.0
0.5166460188906608;-0.6557900858557772;2.740740740740741;-0.2566787602032463;0.1589588228450556;206.0;1.0
0.6742092778477311;-0.5869269711456842;3.364372469635628;-0.1539171821471405;0.1680960220785776;203.0;1.0
0.4855317139694829;-0.4999150938969591;0.3712871287128713;-0.1584905022685517;0.1300254413007802;323.0;1.0
0.6395047312029836;-0.5820387417854094;0.9867549668874172;-0.2257183515522;0.17114945224366;216.0;1.0
0.1789601411411819;-0.4909503050391732;0.9864864864864864;-0.1981959903937062;0.1000553791011877;195.0;1.0
0.4685254384327182;-0.606352748982631;0.3967391304347826;-0.2265497313852517;0.1579949366181563;202.0;1.0
0.3211608403262017;-0.3683754921247911;0.9354005167958656;-0.065655571363178;0.0871635761780399;359.0;1.0
2.1174816904737974;-1.0578884067565066;1.0;-0.3750063922326674;0.5456871288452363;147.0;1.0
0.3585024458091543;-0.4525035822233543;0.9859154929577464;-0.1280883104798226;0.1325312623247859;205.0;1.0
1.502549056277897;-0.0685271060949127;1.0434782608695652;-0.0667249879368208;0.2566195482968094;151.0;1.0
0.5762318569251681;-0.5375393861614579;1.0298507462686568;-0.1662900075867094;0.1569416446381352;199.0;1.0
0.7412183876065047;-0.5207749337050501;0.6694915254237288;-0.4524652377759501;0.2264056043410217;113.0;1.0
0.5317730699850306;-0.6713138128201454;0.958904109589041;-0.2418108677840953;0.1576412933762843;198.0;1.0
0.6588220815171717;-0.4550968833767967;0.9594594594594594;-0.1094744517349089;0.123231861256453;440.0;1.0
0.7768230354848986;0.0538225576431215;2.095744680851064;0.0073021295794687;0.1109966814527068;202.0;1.0
0.6929010748776236;-0.1432229197089646;1.0484848484848486;-0.0841478732217945;0.0989664968546074;236.0;1.0
0.7821462367493028;-0.4344449861446294;1.0205479452054795;-0.0547670574530356;0.1611096761325069;198.0;1.0
0.6925470725211194;-0.0656576524322826;0.9777777777777776;-0.0516903212696833;0.0885736913402171;225.0;1.0
0.7324283832522769;-0.3762716729767426;1.0405405405405406;0.0444663636648003;0.15249006078117;207.0;1.0
0.3906821562365185;-0.3539733112028527;1.0347222222222223;0.0172664411758396;0.1171700333585332;204.0;1.0
0.4267828780050877;-0.4583449521616733;0.375;-0.080258481661049;0.1299726747425593;203.0;1.0
1.1517409086997905;-0.0252853599946479;1.0;-0.1150961376255026;0.2388112819013149;114.0;1.0
0.7552721649563592;-0.1571892692836743;1.1282051282051282;-0.1256120046931763;0.1099658878854741;222.0;1.0
0.4406145025157405;-0.7089148076366352;1.346938775510204;-0.3193906344408593;0.145714925800075;202.0;1.0
0.3392577034283458;-0.4590901859281925;1.148148148148148;-0.1319817298635324;0.133565611728594;208.0;1.0
0.6158191378064286;-0.3664774620218294;0.9733333333333334;-0.0055235859280138;0.1384628614791872;209.0;1.0
1.0340779337464006;-0.1834967672843881;1.6258992805755397;0.237597198616424;0.1669963372955389;203.0;1.0
0.8960585517982489;-0.3930614743377219;1.0335570469798658;0.0130689881233367;0.1718595968161434;207.0;1.0
0.7353844333627254;-0.1027305930467581;1.2946428571428572;-0.255337099882414;0.1718678186447917;239.0;1.0
0.391785926944129;-0.7046691085489732;1.0068027210884354;-0.3105158204208975;0.1448260890465637;202.0;1.0
1.2907780547272265;-0.4409971726840843;0.9663865546218487;-0.4072094275634313;0.3928290258650086;126.0;1.0
0.5154026657600104;-0.4870948830178979;2.7357142857142858;-0.1322746814718995;0.1449589885997722;205.0;1.0
0.777852900200735;-0.5983688186259746;0.9655172413793104;-0.1397864063357164;0.175074644501256;209.0;1.0
0.3344876923585733;-0.4708197203216097;0.3725961538461538;-0.1770502644477348;0.1076886043944035;366.0;1.0
0.6296370295739608;-0.4380308382873962;0.9681528662420382;-0.0902294609899646;0.1552711883797587;215.0;1.0
0.4971624741849098;-0.5984085952272747;1.0342465753424657;-0.2024991671528901;0.1780632260120407;207.0;1.0
0.8256611387416034;-0.2967528410262939;2.725925925925926;0.08017941944074;0.162793077855507;207.0;1.0
0.7599133534567661;-0.5584915637710932;0.4241573033707865;-0.1565175441350358;0.1791735002142108;225.0;1.0
0.7291316960840248;-0.2557445048599867;0.9662162162162162;0.1172982355329289;0.1458098245909343;204.0;1.0
0.5707674923352064;-0.4276023063051841;0.9444444444444444;-0.1555255543392893;0.1035666600034895;474.0;1.0
0.6444123306421325;-0.5853551097728359;2.7794117647058822;-0.2151318879021906;0.1818141540410723;209.0;1.0
1.7645391197042992;-0.6323569631669397;1.1324503311258278;-0.5684059489465099;0.3654058358435134;239.0;1.0
0.8547456665310966;-0.0617350456501179;1.4661016949152543;-0.0679015341052862;0.1357476871619295;198.0;1.0
0.4790741770552356;-0.5428651792345724;0.9801324503311258;-0.15328667559223;0.1455851692695408;208.0;1.0
0.504829272766591;-0.4264766095448395;0.9659863945578232;-0.1808635525604721;0.1120416244950762;533.0;1.0
0.516790474398332;-0.3543134797886144;2.043010752688172;-0.3955523656161353;0.1731560989635101;200.0;1.0
0.4844064528424959;-0.5287074300388452;0.9645390070921984;-0.1904565799080038;0.1608650508228088;208.0;1.0
0.3509176105722395;-0.403432371376959;1.7142857142857142;-0.0991051893619366;0.1141438429363771;193.0;1.0
0.3687943715965678;-0.6564777069410295;2.786764705882353;-0.301788599896538;0.1241702971852675;364.0;1.0
0.6772285515322374;-0.1894454258826402;2.661870503597122;0.0894167836769102;0.111976354463358;308.0;1.0
0.6039638453722764;-0.5801822633111332;0.9536423841059604;-0.2437688474742489;0.1115122089647154;540.0;1.0
0.6740551281505563;-0.384975413258214;1.0068027210884354;0.0147981066241872;0.1352648778977983;201.0;1.0
0.7293696536528123;-0.3862606096171637;1.0;-0.0145142049120514;0.1526829711928999;200.0;1.0
0.5232102467860111;-0.5114200280209508;0.9551282051282052;-0.1723778542890981;0.1510634369160145;211.0;1.0
0.7770918500125674;-0.584458736702295;2.661764705882353;-0.1531291229907121;0.1795266323719011;206.0;1.0
0.4685015760755024;-0.6217869930971863;2.518796992481203;-0.1908709451452921;0.1471937504283393;202.0;1.0
0.4963848360964202;-0.4099233201148649;0.9801324503311258;-0.1141553934170205;0.1767414184676075;207.0;1.0
0.4297009391275976;-0.620697193163798;1.0205479452054795;-0.2372027653606339;0.130730985720191;358.0;1.0
0.7207377026396172;-0.1586921712249783;0.9874213836477987;-0.0917909288366602;0.1189376387834738;211.0;1.0
0.6419457361011978;-0.337968858014948;0.9864864864864864;0.0185140790177357;0.1436248729949897;211.0;1.0
0.8113789470952009;-0.2716212653679553;1.0342465753424657;0.0910080419606076;0.1514050387426858;207.0;1.0
0.4327625131726242;-0.5117553858664506;1.0136986301369864;-0.1306183807171378;0.0993365219684122;494.0;1.0
0.4953096199250503;-0.4649410528693123;2.735294117647059;-0.095918498181265;0.1392982919942923;202.0;1.0
1.115510449468608;-0.0456209849531274;0.5769230769230769;-0.1508964152196166;0.1961188369883719;223.0;1.0
0.5868846164454968;-0.6204517593655829;0.9605263157894736;-0.1811582939189525;0.1371748088781784;355.0;1.0
0.5964044074668639;-0.5013005761714929;0.313152400835073;-0.1091198983552271;0.1399875276673302;204.0;1.0
0.3216726892348392;-0.4415709379245927;0.9866666666666668;-0.2377487917870494;0.1838707885127951;204.0;1.0
0.4808382346532057;-0.246986293653365;1.013793103448276;0.0160894832264491;0.1131643032841902;197.0;1.0
0.5456610608140092;-0.0977792113615429;1.5984251968503935;-0.1337815523676621;0.1070939296935129;196.0;1.0
1.0291923759952102;-0.2889509248185726;1.0246913580246917;-0.2493861413529142;0.1625078434448743;214.0;1.0
0.0871588196343405;-0.3248277938004058;2.145833333333333;-0.2822664425864989;0.106884596381616;279.0;1.0
0.7128705733907529;-0.5087082969894519;3.504385964912281;-0.1665525802259757;0.1653881264098562;204.0;1.0
0.8233733331646864;-0.3608744731101307;0.9664429530201344;0.0098760479802908;0.1586136655073398;201.0;1.0
0.5291441391168554;-0.5152638430649774;0.9328859060402684;-0.1602413853350985;0.1413543011205348;205.0;1.0
0.3670493960923487;-0.6043855649752716;0.3585858585858585;-0.2267101005284635;0.1400638701058617;196.0;1.0
0.4456998185063989;-0.3228725908953043;0.3977900552486187;-0.0024904753273441;0.106980672155932;192.0;1.0
0.4429585449225644;-0.6311412837758634;2.9558823529411766;-0.2357290833242326;0.1472945388692197;203.0;1.0
0.2364159937097464;-0.1904804968235018;0.959731543624161;-0.1603793435328706;0.213388193292028;196.0;1.0
0.6832942999246469;-0.835471970791162;2.738805970149253;-0.3110441925977797;0.1910987594780773;204.0;1.0
0.8214177983032259;-0.3344491950983095;0.986842105263158;0.0643107663620513;0.1552280209365857;203.0;1.0
0.552790552409468;-0.176962268759699;2.053763440860215;-0.2012718349272562;0.0999542030512949;219.0;1.0
0.4300798658219016;-0.5046640933175305;0.9276315789473684;-0.1616290582599008;0.1107630311078145;383.0;1.0
0.3818053194961392;-0.5361388178378499;0.4136986301369863;-0.1594130598073093;0.1405943760804406;204.0;1.0
0.5317123994599782;-0.4819408358810382;0.3905013192612137;-0.1584642451786386;0.1189447172044696;329.0;1.0
0.3069424386267568;-0.5904545187169344;2.7681159420289854;-0.2967258362616762;0.1284008804258553;371.0;1.0
0.5076605960572107;-0.5214733090103705;2.397058823529412;-0.1401455991865651;0.1437667650228596;198.0;1.0
0.3799330429019255;-0.4012861738009506;1.0205479452054795;-0.0621796809216134;0.1236655933165318;206.0;1.0
0.5565597891216272;-0.4275392572326152;1.034013605442177;-0.0418599824263671;0.1471491580947272;205.0;1.0
0.4554198880856058;-0.3941755559817094;0.9013157894736842;-0.1010146280061352;0.1118745976749093;350.0;1.0
0.91092852788538;-0.4390402861831666;1.0066225165562914;0.0062030006204235;0.1697625272548042;206.0;1.0
0.6474396284890257;-0.599755394744944;0.9205298013245032;-0.1549065242930197;0.1694614590135769;204.0;1.0
0.4451362772970944;-0.5738913887739583;1.006993006993007;-0.2025519069451236;0.1377082028914294;207.0;1.0
0.5795503746827845;-0.4754070139396258;0.4367088607594936;-0.1333100688889771;0.1575214317131555;198.0;1.0
0.3961253432949961;-0.4420340081405993;1.0;-0.3720562725421067;0.1457310919603585;231.0;1.0
1.0147871893500686;-0.5304102652838275;0.5260663507109005;-0.1119648555669822;0.2720590409570534;169.0;1.0
0.4929889727917881;-0.531653193427178;1.034013605442177;-0.1446284079416588;0.143158068718882;202.0;1.0
0.3838832811176333;-0.5499836053834244;1.7647058823529411;-0.1850453981663855;0.1072023560664089;376.0;1.0
0.2682505368795374;-0.6440927746728882;0.9864864864864864;-0.2716889821176519;0.1336781618965451;196.0;1.0
0.9407440848133656;-0.3694256345041807;1.0486111111111112;-0.1797341960490456;0.2038450632007739;195.0;1.0
1.677060585391177;-0.193385726382269;1.1636363636363636;-0.0809929750804561;0.3411664574692441;132.0;1.0
0.7739340501101978;-0.1320084861919757;2.305263157894737;-0.2037529905237639;0.1790823643719123;165.0;1.0
1.231205161948143;-0.2389356414430296;0.9117647058823528;-0.2290886921944198;0.2932632773481604;120.0;1.0
0.6032034524958804;-0.5336404245834241;0.8716814159292036;-0.4543420082545025;0.2016546092786113;148.0;1.0
1.662044625148457;-0.4256607845175627;1.02803738317757;-0.2505510766246585;0.3191941933887668;209.0;1.0
0.6374139362125876;-0.5670432410236985;0.9738562091503268;-0.1618215962361219;0.1633977803017568;208.0;1.0
1.1091977805260982;-0.5337784717547331;2.239583333333333;-0.2340878296997561;0.2261794726431266;267.0;1.0
0.7544593284030674;-0.364191474123631;1.0;0.0130825158042128;0.1559670870206267;207.0;1.0
1.298872068859464;-0.1881791402433877;1.2;-0.2185009910922832;0.30062437691287;121.0;1.0
0.7406342318295966;-0.5799602292416313;0.9726027397260274;-0.1322563501539351;0.1828284309225929;203.0;1.0
0.4826720919130168;-0.5040372663286292;1.0277777777777777;-0.1653508043970852;0.1103562705502759;377.0;1.0
0.5431064529256999;-0.6609597116591153;0.9867549668874172;-0.2267430825417938;0.157017658859339;211.0;1.0
0.5646771491317266;-0.5850205360786191;0.9246575342465754;-0.154667422148276;0.1654213313365634;211.0;1.0
0.5600688625815953;-0.5521406863880204;1.0;-0.1644027878689863;0.141869975878084;207.0;1.0
0.5619782540437376;-0.5947868350562431;2.695035460992908;-0.2055368669618214;0.1296708493340099;357.0;1.0
0.7304564391572418;-0.4611234145101701;1.020408163265306;-0.0152327706542683;0.1615578177643272;207.0;1.0
0.09289655491084;-0.5519696754108111;0.879746835443038;-0.1788464950538568;0.0961454900341631;149.0;1.0
0.8054371156973625;-0.5716256850771331;0.9395973154362416;-0.161557872613491;0.1828629956122563;208.0;1.0
0.4364227565491952;-0.5946534711573698;0.3963254593175853;-0.2124636311450184;0.1186720737104193;312.0;1.0
0.4097838162456811;-0.6028145490531104;1.0070422535211268;-0.2013934856317041;0.1426897864383197;199.0;1.0
0.5689417114881508;-0.5426006365556582;0.1642294713160854;-0.1303043414454447;0.1498218734492755;201.0;1.0
0.6571533565928603;-0.6595873579774059;3.4044117647058822;-0.2159964195059031;0.1710356561736455;198.0;1.0
0.4897800864804567;-0.567231364597582;1.260215053763441;-0.1979356814137652;0.1428565869826021;197.0;1.0
1.0669247739929772;-0.3502791676310312;0.972027972027972;0.1267950934646448;0.1710912552410002;198.0;1.0
0.4011236559477579;-0.6140301804360745;1.0134228187919463;-0.1821278141767638;0.1576036797416113;209.0;1.0
0.540081401079391;-0.5126688500366263;1.0;-0.1698210054135636;0.1583479513403304;197.0;1.0
0.8152788645491998;-0.4976970326734984;1.0608108108108107;-0.0321048131697965;0.1641024278983572;210.0;1.0
0.5021633829544732;-0.5433618098245608;2.6142857142857143;-0.1977142726507612;0.1301791279862836;360.0;1.0
0.4900822513966335;-0.3627232409460655;0.3788659793814433;-0.0644191592027549;0.1315512713453396;205.0;1.0
0.7006193131183315;-0.5917257335900595;0.9933774834437086;-0.1910219549807585;0.1766846229019355;209.0;1.0
0.5720692786193725;-0.4960281079929503;0.9932885906040269;-0.1469149129155307;0.1430475614898047;197.0;1.0
0.6039562061887266;-0.3586583724049226;0.8954248366013072;-0.2360349776904279;0.2572840109516718;208.0;1.0
0.3635901718695939;-0.5332469514893206;0.9342105263157896;-0.1900592467409702;0.0977312328006321;478.0;1.0
0.6988310622438734;-0.5469433330613309;0.1308165057067603;-0.1781846171587714;0.1655689073228048;203.0;1.0
0.269759907618534;-0.5948999061230499;1.6544117647058822;-0.2074036880626739;0.1317914043528967;200.0;1.0
0.6240643687567952;-0.5554016593036275;1.0134228187919463;-0.1764390225790263;0.1692286232500716;207.0;1.0
1.6374642186402928;0.074797290993347;0.9926470588235294;0.0550428646722432;0.2578971687584797;157.0;1.0
0.5938673039748166;-0.5086414336826421;1.8985507246376807;-0.138218199233704;0.1588692228747667;205.0;1.0
0.5868563821099733;-0.5496321075793146;0.4769736842105263;-0.1647062383173357;0.1619297513270702;200.0;1.0
0.4668800003852342;-0.4727746413638555;0.891156462585034;-0.0786142788728093;0.1293463328607611;197.0;1.0
0.3531222381709202;-0.6683677469038203;1.0206896551724138;-0.2972921549846051;0.1576614103257824;203.0;1.0
0.8563736586990666;-0.1963318181134923;1.022222222222222;-0.1569375131147217;0.1447707910139574;198.0;1.0
0.6481097930445823;-0.1463333836340476;1.13013698630137;-0.2360389609897696;0.1584857350549776;186.0;1.0
0.4654776834783052;-0.5178369131716315;0.987012987012987;-0.1779713427551264;0.1381569726491749;204.0;1.0
0.7377467557497807;-0.2331926039970484;1.0067567567567568;-0.0312897202535673;0.1168251602459349;552.0;1.0
0.3872367925033061;-0.5707869027004007;1.0068493150684932;-0.167718612167848;0.1346868942982692;203.0;1.0
2.1090511406673658;-1.0842603339883607;1.1121495327102804;0.2143490371942476;0.5694217322989228;105.0;1.0
0.8310567481125093;-0.4461374630006822;1.0066225165562914;-0.0437822819850369;0.1682832525086822;210.0;1.0
1.038459811192638;-0.4634934557560128;1.007462686567164;-0.4404505131719826;0.261512745934322;141.0;1.0
0.7413906297796045;0.0328882247388026;2.01980198019802;-0.011235920388039;0.1086305811593271;207.0;1.0
1.9345861880834927;-1.038651949804595;1.0;-0.3531625954826266;0.4957266173333265;149.0;1.0
0.2932057962549418;-0.5309322977974426;0.9375;-0.2806175258828126;0.1022773973563127;322.0;1.0
0.8557433448438282;-0.3946282168084702;0.9933774834437086;0.0044798831245986;0.168716422158708;200.0;1.0
0.3164320986705172;-0.5247821019661035;0.9324324324324323;-0.1725409170956244;0.1261270771298252;205.0;1.0
0.3279511148936018;-0.6079251342122821;0.972972972972973;-0.2231057964484445;0.1375799031282887;199.0;1.0
0.6137748047466963;-0.4064089835873405;0.9801324503311258;-0.0700875198551198;0.154175007436515;205.0;1.0
0.7226017907273359;-0.2262876549220187;0.9888888888888888;-0.1240007963172342;0.1030143515521306;248.0;1.0
0.5448076714371888;-0.1102234519426617;1.017751479289941;-0.1722325969632037;0.1157355014185253;194.0;1.0
0.5064503250150745;-0.529745089167852;1.0208333333333333;-0.1687573819323906;0.1555778227174623;208.0;1.0
0.9636154822917656;-0.2980182596449667;0.9508928571428572;-0.2508544280620107;0.2630562496281475;136.0;1.0
0.5682467960512608;-0.3954690491122168;2.926470588235294;-0.0571073777322677;0.1061621277206701;360.0;1.0
0.93350910963841;-0.4500844235730982;1.375;-0.0623907794178726;0.1770428637871632;188.0;1.0
0.6512549999058224;-0.5549848672624087;2.489208633093525;-0.1619319021557355;0.1513741606312062;202.0;1.0
1.1939333719254694;-0.2403055417790698;0.946236559139785;-0.2565473795808703;0.272129701612369;123.0;1.0
0.7084180967535334;-0.5490812270460902;2.149253731343284;-0.0867876411513952;0.1699120621675472;205.0;1.0
0.7729017598830987;-0.4684656328402083;1.033112582781457;-0.0921351274331693;0.1673712092494837;210.0;1.0
0.6127432423837192;-0.6911283372695345;0.951048951048951;-0.2197315724942863;0.1710982245993495;200.0;1.0
0.5023005668622618;-0.5131502287003941;1.0133333333333334;-0.2120978478676699;0.1484937619545566;206.0;1.0
0.5017960713071736;-0.5762161688780914;1.0068493150684932;-0.2206554989522965;0.1167870599882377;357.0;1.0
1.3805229826115082;-0.2985427785542783;1.0888888888888888;-0.1929618192659688;0.2916372777602309;125.0;1.0
0.473995159400846;-0.6743723396684763;0.9805194805194806;-0.2677525422360369;0.161837604239218;209.0;1.0
0.2453903848446167;-0.4932973901915735;0.9801324503311258;-0.2159629973503719;0.100312404748463;372.0;1.0
0.6086666068338412;-0.6342541706400364;1.9467084639498435;-0.1575207450971991;0.1687947963949977;206.0;1.0
0.6628930836983034;-0.6050226296317527;0.8974358974358975;-0.1810728807700015;0.1651319955582857;213.0;1.0
0.3121488527672513;-0.4724482576371519;0.3909574468085106;-0.228026048325715;0.1173542657936321;206.0;1.0
0.4034789213264664;-0.6749952608568783;0.3950276243093922;-0.2676066389224832;0.1465865541176464;205.0;1.0
0.3516592711947988;-0.5114989188373547;0.9072847682119204;-0.1750514140785426;0.1375453101570991;204.0;1.0
0.2591167018077519;-0.100509498610604;0.37109375;-0.2068187314309333;0.0765818995168164;206.0;1.0
0.4654835953021474;-0.5433080335032658;0.4143646408839779;-0.1716998140523596;0.1418515569370614;208.0;1.0
1.0103950453656123;-0.3026864548351642;0.6180904522613065;-0.1801933017377009;0.1857975235692864;176.0;1.0
0.5142643586991997;-0.4602588283902852;1.0273972602739727;-0.0982457396793936;0.132013402244263;201.0;1.0
0.5456636624303056;-0.5443299569250397;0.98;-0.1559166989930187;0.1460118410252331;204.0;1.0
0.5678691793143094;-0.3528920258918109;1.027972027972028;-0.0063505654638854;0.1412827699211544;199.0;1.0
0.2439016703459233;-0.5609170573521103;2.051470588235294;-0.200218840334089;0.1355605834264914;205.0;1.0
1.0017217704551955;-0.0269253710441847;0.9759036144578314;-0.0723869308843756;0.1617906611572147;163.0;1.0
0.6518059707535528;-0.5321649842376321;2.6739130434782608;-0.1411121758351391;0.1615931560420567;203.0;1.0
0.6046429848141696;-0.5674649572896984;0.9867549668874172;-0.1785850422160233;0.153903105916286;204.0;1.0
0.6924041222779558;-0.5751916723668765;0.2440273037542662;-0.1766641894735788;0.1870507227316433;200.0;1.0
0.7238812627775008;-0.5008577319914616;1.0068493150684932;-0.0743669805546573;0.112402975653799;484.0;1.0
0.6454020093543557;-0.4085175056976198;0.9798657718120806;-0.008132599048492;0.1404759511656859;200.0;1.0
2.74142944528674;-1.6106101367329515;1.0;-0.1691290830107561;0.9834236398304758;161.0;2.0
2.838123723118186;-0.7402074587964189;1.0089686098654709;0.0101759826836615;0.9063260828004416;157.0;2.0
2.285928988147873;-0.5726668796377511;1.6870229007633588;-0.0962825246400319;0.513744602384345;253.0;2.0
1.3563178966715026;-2.138289917719522;1.0352112676056338;-0.2499305959004489;0.6200256611982928;224.0;2.0
2.6601653598653527;-1.4852193723364948;0.9905660377358492;-0.172524704558147;0.9175362702986776;153.0;2.0
1.250495990257556;0.1837698684188906;0.9571428571428572;-0.2174563447379708;0.4043561120837178;176.0;2.0
1.0470182681205369;0.9257064012069098;1.143884892086331;0.0770552136970808;0.5711513208054341;209.0;2.0
1.0779290645038615;-0.5422022020846503;1.3714285714285714;-0.112570827481132;0.3474348081880227;186.0;2.0
0.8157273477305574;-0.1446273854825775;0.7878787878787878;-0.1936509864235914;0.6445109778765207;167.0;2.0
1.201185600040085;0.0565306549974569;0.6090225563909775;-0.2223769039991039;0.365946374980163;196.0;2.0
0.5024202666200881;0.1409512078919686;2.8521739130434782;-0.0514856179649129;0.2525678466053221;204.0;2.0
1.4749587840922445;-1.965282561679548;1.2307692307692308;-0.7889698739692852;0.6831369295355357;228.0;2.0
1.3828377203542837;-0.3555163658874118;0.9316770186335404;-0.1924253624708003;0.3190506020042133;217.0;2.0
1.335407806232891;0.5689032736479115;1.1544715447154472;0.175049757965023;0.6633736095527835;167.0;2.0
1.82774634287834;-0.5529534082761433;2.0545454545454547;-0.0879407795851759;0.4516205596801074;232.0;2.0
0.3813481706340403;-0.830666627456895;1.5294117647058822;-0.2120740779550235;0.1504707730293233;226.0;2.0
1.3166638329820788;-1.3285420794274252;0.5212121212121212;-0.194925128338953;0.4715225238108537;131.0;2.0
1.7510084348986736;-1.1374540574385257;0.8492063492063492;-0.2928268223325338;0.4689154917718093;164.0;2.0
1.3426462805906114;-1.897140867848401;1.055944055944056;-0.8621535316020751;0.7077257972856003;189.0;2.0
1.5869939411160685;-0.7095449633386021;1.7130434782608697;-0.1642702199976934;0.5893257998928472;240.0;2.0
0.8251648032358367;0.7801693682236736;0.5664739884393064;-0.169833134854095;0.5723696737748344;189.0;2.0
0.958506565145374;0.0548833619836841;1.7954545454545454;-0.3672335445619152;0.3482165160055513;222.0;2.0
0.7941422549970637;-0.1281155884655518;0.5436241610738255;-0.1647232690124654;0.5916488334532071;179.0;2.0
1.855;-0.6005174724669249;0.9652777777777778;-0.287421932591338;0.3878998561816717;200.0;2.0
0.7399203252402694;0.7311609571488569;1.422680412371134;-0.1486032154522322;0.5389328155512322;174.0;2.0
2.597087485134197;-1.659593346894556;1.0373831775700937;-0.1070972511253801;0.9819520194382304;151.0;2.0
2.3471893437349616;-0.4165334083649952;1.681818181818182;-0.1473233311776118;0.5289766032612838;227.0;2.0
0.851413094922706;0.0335280351094998;0.8384615384615385;-0.0210234299239669;0.5017403846565432;197.0;2.0
0.7685486205894313;-0.1014519562179124;1.1346153846153846;-0.0738948784696117;0.5572108373447857;181.0;2.0
0.7332694512884979;0.7256577801096114;1.5904761904761904;-0.0992955234386221;0.5241513766622483;179.0;2.0
0.91;-0.1092882014354218;1.4814814814814814;-0.1340287986124051;0.6662637741346609;162.0;2.0
0.9321175889080732;-0.0665692221139948;1.432098765432099;-0.147312012100061;0.6831434371135034;167.0;2.0
0.1929262344606634;-0.2083288282060304;0.9044585987261148;-0.2157601098775074;0.2912189611694075;140.0;2.0
1.0330564158301154;-1.8610905919472904;1.0253164556962024;-0.158063474896004;0.6190539500008545;209.0;2.0
1.541489717195871;-1.3471355567682408;1.5096153846153846;-0.2241009056003058;0.4613689276603253;162.0;2.0
1.184576663387319;-0.0404316240601349;0.577922077922078;-0.2351096115976607;0.3097245499492283;250.0;2.0
0.7679638404868182;-0.0529994318620911;1.4054054054054057;-0.0569811029047102;0.5336651726793916;219.0;2.0
1.2271507582495818;0.0021198286465202;1.196969696969697;-0.3013184461256579;0.434713425222349;193.0;2.0
1.9093371661818472;-0.8441391103883316;1.0126582278481011;-0.2844709012849769;0.5310206259706183;259.0;2.0
0.7758600786719514;0.6704064316364088;0.9930555555555556;-0.1334358409966687;0.5740990153562784;194.0;2.0
1.1812393682904236;0.2240460269815353;0.9734513274336284;-0.1475789870551793;0.3844682393053018;183.0;2.0
0.9626946331830876;0.8202558873696445;1.008695652173913;-0.0779332034835653;0.6617624871196242;158.0;2.0
1.1773032372220316;-7.708316238550362e-05;1.7352941176470589;-0.2566930845951294;0.3583515573470754;211.0;2.0
2.145925291780433;2.1173665153470265;1.0178571428571428;-0.5555734721365561;0.8509690130382839;227.0;2.0
1.298164344545317;-0.5617782421860207;0.9461077844311376;-0.1760798431603379;0.2924685739732356;244.0;2.0
1.068840808062346;0.0437720975817138;1.4625850340136055;-0.2839027315672653;0.4039203604751315;168.0;2.0
0.8211512079228533;0.2070278480610444;1.2962962962962965;-0.0315792429220676;0.4681232747202993;191.0;2.0
0.8079396984924623;0.8065195985965892;1.2660550458715596;-0.0342334166109284;0.5536063071077996;189.0;2.0
0.369723258299072;-0.0900545883043326;1.1735537190082646;-0.116372298757503;0.2740534848353875;127.0;2.0
0.5856663144211681;-2.6030645805411003;1.3975903614457832;-0.5208045150801148;0.6085448407172803;161.0;2.0
1.3641162433539076;-2.008078168144523;1.827956989247312;-0.0286920909401475;0.8645605643375543;145.0;2.0
0.4791409677216244;-0.6409709448591506;1.3796296296296295;-0.0626655126128335;0.1494913092454783;197.0;2.0
1.227779454470208;0.3166964493828321;1.4012345679012346;-0.3153150323783451;0.4595687232962699;208.0;2.0
0.6851021788023567;-0.1473258673410842;1.475;-0.1481684184834154;0.5466966248745323;191.0;2.0
0.5729743536862449;-0.2241111863751909;0.6972972972972973;-0.2138540055634428;0.4150305189458447;209.0;2.0
0.7988874830440578;0.6809898088937761;1.5047619047619047;-0.0823982730284444;0.5395463174346637;173.0;2.0
0.5917516688344261;0.0025155039051322;1.025;-0.0478295065929253;0.3639120410851564;186.0;2.0
0.6592985167537085;0.6412113202181224;0.3442622950819672;-0.063070087134758;0.3818331590630722;239.0;2.0
1.2523845736603043;-1.6310790856523043;1.3504273504273503;-0.3868948255758148;0.4344539938362144;163.0;2.0
0.7529302044810252;-0.0616929351710533;0.63125;-0.0738134817352185;0.4851666768909914;177.0;2.0
1.131426682526276;0.1775101519129442;1.0234375;0.2544909635071053;0.5408080480532412;177.0;2.0
0.6727021702247051;-0.1003410034601434;1.396551724137931;-0.1042317300347639;0.4771111299320429;190.0;2.0
1.5080201509345093;-1.6965670921019154;0.7486033519553073;-0.5417114041658809;0.6842761500805379;212.0;2.0
0.8450072923331657;0.6365969150563369;1.5943396226415094;-0.0147214432187184;0.5012885756926696;175.0;2.0
1.8999529200010064;-0.7988405614058595;0.5572916666666666;-0.2583408028432372;0.5351353799508276;227.0;2.0
1.24691801998707;0.323435153133409;1.4744525547445255;-0.1644048110459099;0.4419889134298962;168.0;2.0
0.4782739816950864;0.4559741243970331;0.8346456692913385;0.0307020052871443;0.2708538389256376;179.0;2.0
0.8622936116373012;0.7862429924350323;0.5555555555555556;-0.2685103167612737;0.6774311392940118;162.0;2.0
1.2459998268323331;0.091873855962052;1.671641791044776;-0.1647944218303298;0.3703999002519644;184.0;2.0
1.109386355110778;0.3572342447392528;1.448;-0.2912442830716415;0.4655255690122156;174.0;2.0
2.081523177306443;-0.2500047843001685;1.0689655172413792;0.0115102190682839;0.4368555329832984;225.0;2.0
0.7526289917482902;-0.1272878040436934;0.9914529914529916;-0.1551673296928604;0.5742088104494235;162.0;2.0
0.5048779228771504;0.395950024497955;1.0564516129032258;0.0127510873291036;0.3055631347406391;165.0;2.0
0.8762159370419234;0.0406989468949194;0.9027777777777778;-0.0937856299502301;0.5936437080128549;190.0;2.0
1.446375621652098;-0.2973537788301978;1.0946745562130178;-0.1309175014477274;0.7372718875982436;246.0;2.0
0.3851739000926029;-0.4089355571142129;0.5157232704402516;-0.5172277131561213;0.6406368354214268;164.0;2.0
0.7944250803797417;-0.1802626655853058;1.2916666666666667;-0.2515971764344247;0.7004459102641978;164.0;2.0
1.400028198362424;-0.5371665389733541;1.0567375886524824;-0.2256871075279545;0.29428052740782;206.0;2.0
2.3430651912337352;-0.6013505167583579;1.8;-0.1549078776656265;0.5335305904450285;255.0;2.0
0.8847186503807809;-0.9425626729641174;0.936046511627907;-0.2382461783649634;0.2828201175966075;263.0;2.0
1.1724375389018786;0.0358590222590654;1.5;-0.3532778408573223;0.3703323146638462;260.0;2.0
0.8055548302362427;0.5613180125898108;1.0387596899224807;-0.0583626854896632;0.5167138577173574;193.0;2.0
1.36265348010568;0.2445402813892355;1.2659574468085106;-0.1037120608337745;0.425607234674019;172.0;2.0
0.924145728643216;-0.0222713543208423;1.5606060606060606;-0.0585980484567205;0.6521562721879033;158.0;2.0
2.0013474519569834;-0.7188371324290925;1.7166666666666666;-0.1586057181195509;0.4805427968894847;242.0;2.0
1.4364177845264456;-1.0998911568852678;0.9741379310344828;-0.2335250355638604;0.3954688068861691;167.0;2.0
1.1968200641929367;0.3696421313657066;0.9489795918367347;0.003913723286036;0.5858250520196397;175.0;2.0
2.668403803549637;-0.5717676170326805;1.0175438596491229;-0.0785040948374999;0.6464072231939193;153.0;2.0
0.6920581972393631;-0.1148335838613927;1.5294117647058822;-0.1330985322320001;0.4977360877627271;195.0;2.0
0.7641697416379949;-0.6745337464196708;0.9127906976744186;-0.0407725304782071;0.315241753787818;220.0;2.0
1.016026934685404;-0.6736963661239731;1.0451612903225806;-0.2281068172808614;0.2683683975498999;203.0;2.0
1.095480052077014;-0.6109952111196201;0.9640718562874252;-0.1309523444874824;0.2510915117031853;241.0;2.0
1.9525384908931565;-0.6096920981116551;1.7899159663865547;-0.1897206251278732;0.4585573799403682;279.0;2.0
1.2013054953842717;0.0011763237398059;0.9318181818181818;-0.1942449984921067;0.3789339942396634;182.0;2.0
0.9057562379132575;0.6461839697428383;1.530612244897959;-0.0876763855951769;0.6086891279630905;183.0;2.0
0.7557943323820855;-0.0489310423616752;1.5454545454545454;-0.0361032131613684;0.5115422362737072;214.0;2.0
0.7973136679017605;-0.2370358134984503;1.278688524590164;-0.2518126696907539;0.6257585787165962;161.0;2.0
1.7307972105053622;-1.1144083428084737;1.2244897959183674;0.0111331535419083;0.440133405578739;164.0;2.0
2.3722355603322005;-0.7494880219530171;0.3241106719367589;-0.2178843606464811;0.6453939039075205;225.0;2.0
0.6541659027043332;0.4533567007324579;0.918032786885246;-0.1375373838531434;0.4535398062646593;182.0;2.0
1.1819849246231158;0.017032510111456;0.9640287769784172;-0.2847498933361931;0.4354594036538178;191.0;2.0
1.2603153415889097;0.2467507452464623;1.1357142857142857;-0.1273330043850429;0.376629145206345;212.0;2.0
0.7746984924623116;0.7621665816252741;1.0291970802919708;-0.0838511971837085;0.5914597188380281;146.0;2.0
0.6431888309542106;-0.1644481779283712;1.2916666666666667;-0.0855617472962537;0.4618556768290995;165.0;2.0
0.5146096130689033;-0.1609026680628256;0.4876847290640394;-0.1997384712444988;0.4246118938083797;181.0;2.0
0.6067308279307984;0.5983406287510081;1.4907407407407407;-0.2050801751696763;0.4614368053285301;199.0;2.0
0.9133333666151778;0.1504838289466342;1.0603448275862069;0.0234914214840861;0.6104473108680161;182.0;2.0
0.7566680763076055;0.0604741579284418;0.659217877094972;-0.1665020846698407;0.5421028250344921;196.0;2.0
0.8160079301052077;-0.1827638190954774;1.8452380952380956;-0.229365730518602;0.6487096275371198;163.0;2.0
0.8943219835563564;0.0439207070048109;0.6647058823529411;0.0010625560517063;0.5107327289021694;225.0;2.0
2.8535594249067344;-0.8898203307218611;1.0;0.0398365287783565;0.9586935040434936;156.0;2.0
2.068629195558126;-1.0219984125205783;1.1048387096774193;-0.026305351113939;0.5946149079251293;247.0;2.0
1.8381505877975408;-2.0472814766276617;1.4370860927152318;-0.036483438775775;0.7175436056266723;221.0;2.0
2.0913800417087813;-0.8698001886667784;1.0344827586206895;-0.2601966268546039;0.5076275965521398;239.0;2.0
0.996966762846921;0.0233673917048432;1.432098765432099;-0.0117741158903109;0.6525223182148292;163.0;2.0
1.7615642491848882;-2.1442269385175066;1.0547945205479452;-0.1278306701134335;0.6906704829830609;192.0;2.0
0.5308969066693813;0.5065812174096513;1.394736842105263;-0.1343225009847958;0.4458939503145899;183.0;2.0
0.4484426290144566;-0.0551712749578682;0.9622641509433962;-0.1385471701963064;0.3108922434973586;176.0;2.0
2.25406841830634;2.1599471378040875;0.6044444444444445;-0.49350085806111;1.0484534147601106;155.0;2.0
0.6;-0.1104882384262207;0.5828571428571429;-0.1961969474972055;0.4476979616066197;202.0;2.0
0.7004044800239158;-0.5206146532923933;1.076335877862595;-0.6936228946217378;0.3869981440276092;169.0;2.0
1.685101885736645;-1.31067148926622;1.469135802469136;-0.0839610955551175;0.460621758046169;164.0;2.0
1.168076556632323;-1.5711482874229217;0.9916666666666668;-0.4530769659184928;0.4141381884422841;166.0;2.0
0.2978220507485623;-0.1273939227389549;1.48;-0.2132268679639658;0.2639389404323963;139.0;2.0
0.4543035057541869;0.0241016302995821;0.937984496124031;-0.034093496806763;0.3093435639798665;162.0;2.0
2.212522196122189;-0.379272217611404;0.945121951219512;-0.0356426783613641;0.477625060339895;237.0;2.0
0.7738971651264783;-0.1519306390555963;1.0168067226890756;-0.2268880666420244;0.6357924038986509;165.0;2.0
0.8859168768650705;0.8462201460653969;1.0819672131147542;-0.0989092866913149;0.6017817676050214;167.0;2.0
0.2945728396907598;-0.7215935924655937;1.9540229885057472;-0.1561202961633383;0.1366008113209205;182.0;2.0
0.6022880093705556;-0.0366652089006515;2.163636363636364;-0.0969631039497751;0.4494363368307636;235.0;2.0
1.124746494865794;0.9009895698213776;0.9615384615384616;0.0562528947334812;0.6357594858701958;191.0;2.0
1.2916755639482436;-0.27128482821909;0.9597701149425288;-0.168844248236708;0.2829022712183857;210.0;2.0
0.8635637555537445;0.0314632802181133;1.0434782608695652;-0.0658058361371464;0.5844037082018306;166.0;2.0
0.7417694901617871;-0.1101855685070739;1.0175438596491229;-0.3841139519702312;0.7162954536072691;156.0;2.0
1.163499658628083;-0.2006684881989717;1.2857142857142858;-0.3164218597650877;0.3794713784666876;180.0;2.0
0.6326905009746465;-0.1196984924623116;0.9586206896551724;-0.0891718300736707;0.4424558263299423;211.0;2.0
2.6791724874216736;-0.8608316053336413;1.045045045045045;-0.2001839066152944;0.8812794871677015;158.0;2.0
0.4499362417123208;-1.1131778605533782;0.8794326241134752;-0.0340731824620963;0.2502123069166624;189.0;2.0
1.762265791922876;-0.9470210699841324;1.3716814159292037;-0.4618106471017606;0.4815237635919472;226.0;2.0
0.8884386438947431;0.1015048205009716;1.530612244897959;-0.0211292954780396;0.5247058910556599;187.0;2.0
0.6954597929901579;-0.2080653266331657;1.8875;-0.3151800755231811;0.6238664406097252;170.0;2.0
0.7363161460713455;0.0050086569795963;1.2033898305084745;-0.0020092392163834;0.4885616716948013;202.0;2.0
2.3056383621624343;-0.7711146275559513;1.256;-0.2813687965749794;0.5338017097333861;245.0;2.0
0.9637973236812186;0.4969000114267472;1.779816513761468;-0.0535885759356134;0.5164625043698182;192.0;2.0
0.691243073980649;0.542388472224403;1.5087719298245614;-0.0760101625925593;0.503253187178387;133.0;2.0
1.3504303510486733;-1.1426233688155356;0.9912280701754386;-0.2933687697162037;0.4034684237968153;164.0;2.0
