R_val;S_val;RR_l_0/RR_l_1;signal_mean;signal_std;seq_size;label
0.5869900226862054;-0.5117655288761097;-0.45447217414017355;-0.9449719448125559;-0.34302635379523483;1.3991678765033548;0.0
-0.007418274420726643;-0.3169912715591938;-0.10001290574701807;-0.6870793873477081;-0.47410402353645686;0.15092221706166753;0.0
0.8176560515040417;-0.4851620170409834;-0.04622250559338456;-0.20698052594502142;-0.3892121476131253;1.426303651708609;0.0
-0.2920370502204592;-0.014921635828305899;-0.19519241163111056;-0.7511607146265136;-0.9028481174044485;-0.17470708540138133;0.0
0.9190382605571485;0.061692059732946905;-0.21266139769437545;-0.9722751946339755;0.32191471613592754;0.6936377211667489;0.0
-0.33153866845789076;0.14492028526563602;-0.032543888917788574;-0.6278165118399274;-1.0005261423463465;0.6936377211667489;0.0
0.4454903302782733;-0.7047631673649359;-0.22967044522741079;-1.2328986828254918;-0.3995701533382115;1.1006743492455602;0.0
-0.2708889979681472;-0.1317393786363847;-0.10474783647113903;-1.5945259454280354;-0.8088055670271111;-0.25611441101714355;0.0
1.2680342491205805;-1.9778891162819106;-0.14913781200977572;-0.6155576350956177;1.0036824370644983;-1.2872738688167984;0.0
1.922584787729437;-1.53908700344506;0.0029691225194044173;1.1217527294321537;1.0210003752937449;-1.3144096440220523;0.0
1.3319364502930824;-0.18804035499053887;-0.2847587188701492;-0.5015681724718346;0.3744920868454022;0.6122303955509868;0.0
0.8364741541647605;-0.21495453278065788;-0.10527628856088458;-0.072656406789575;-0.3572283354683874;1.2634890004770845;0.0
1.0256650261868276;-0.30114470328248016;-0.3343853635592792;-0.3822709942142762;-0.27822576512063885;1.1006743492455602;0.0
1.2603424667986947;0.40379952517043094;0.02735885719773542;0.8077561595193686;-0.3212997136268742;1.3720321012981007;0.0
-0.2871910281237202;0.08387632837692802;-0.24067490442485126;-0.7423492246156077;-0.9273647675436115;0.5850946203457327;0.0
0.41056619575110154;0.09208058825491514;-0.2567105994464705;1.8325291662320575;-0.0822580435217271;-0.6902868143012088;0.0
0.10821226269711061;-0.2037496101961139;-0.07129905208639191;-0.34137689365885515;-0.36506923613193976;-0.09329975978561912;0.0
1.6961403766636132;0.0847433103754635;-0.010974013145770388;-0.03787956594919904;0.5195112026685389;0.34087264349844604;0.0
1.5096277000276046;-0.22833742003866703;-0.2581427815277281;-0.6384536823416392;0.48601511640959755;1.073538574040306;0.0
1.2642941384316653;-0.04020600141200933;-0.06295376593476286;-0.3526656866322288;-0.15938458927647026;0.5579588451404787;0.0
0.9256498293163681;-0.11826923896276433;-0.2098691521697777;-0.31196755419875316;-0.27680568457919974;1.2634890004770845;0.0
-0.15009290968256692;0.3653027584901976;-0.14913781200977572;-0.19173891006831104;-0.952749554478311;0.39514419390895417;0.0
1.5596979095229395;0.17575297200052492;-0.40149178253763895;0.9362237523573185;0.5432864227393496;-0.03902820937511098;0.0
0.10782662116727876;-0.1993415544379236;1.6411536662280357;-0.43127691711336985;-0.35127352351342617;-0.25611441101714355;0.0
0.2780174515145293;-0.32121827811828924;-0.28764788605890335;0.6490342004957818;-0.14382078342381396;-0.4732006126591761;0.0
1.624109616186789;-2.0437623117083743;-0.3430519156785545;-0.06825292408059253;1.089620117469395;-1.3958169696378147;0.0
-0.43281000115705875;-0.041816374777637756;-0.1932619793116535;-1.1516653216222381;-0.9803696153178723;0.6122303955509868;0.0
1.282902527683911;0.1952853408870748;-0.2956751744412959;0.17886741213362606;-0.26994187730973795;1.4805752021191172;0.0
0.13713844388221547;-0.25046203682513873;-0.12184619741935535;-0.4137090613690365;-0.4605319692529034;0.6122303955509868;0.0
-0.4074409020313123;-0.3813892047137896;-0.10250024277298135;-1.8249672626001052;-0.8673232929683345;0.39514419390895417;0.0
2.911620216412882;-1.043623522686763;-0.24695289085154892;2.0284726519066605;2.9963506989156583;0.39514419390895417;0.0
0.09617489705870348;-0.33291027815180724;-0.17526808129847687;-0.6872346660831031;-0.30060577571308505;-0.011892434169856905;0.0
0.5346139054645946;-0.6156390503273848;-0.14913781200977572;-1.156617164338476;-0.4204839884211021;0.8021808219877653;0.0
0.8200954598238992;-0.5712951095178694;-0.1690533145487312;-0.6310241325157598;-0.4055787319467714;1.1549458996560682;0.0
0.7000747983797091;0.47685816937575637;-0.23224385643925222;3.3761193636574713;-0.19263237141706568;-0.418929062248668;0.0
0.4368610121115976;-0.6923547964855414;-0.17119989566071522;-1.2252909683898643;-0.39013969065624277;0.6665019459614949;0.0
2.8339761058237327;-0.7333557251253326;-0.4032321547481754;1.0311448696444871;2.419956071276475;0.9649954732192897;0.0
1.595111927012158;-1.8875048053618704;-0.18263206627983736;-0.14984938065953893;1.0126739804352178;-1.3686811944325605;0.0
-0.008481810283068289;-0.4146481978528926;-0.09612532323701634;-1.0540991286451804;-0.4676909151825802;-0.3375217366329058;0.0
0.2589229132062172;-0.08822770649522083;-0.12407408432469542;-0.2987525495169574;-0.2000856215308437;0.2051937674721757;0.0
0.1293922012631745;-0.08033690401777495;-0.09687727343237422;-0.348976822637589;-0.10789195977804472;-0.22897863581188949;0.0
0.16944768888288414;-0.6509860641554496;0.18179344275430787;-1.2061442704088983;-0.5191377984271125;0.7750450467825112;0.0
1.2467066614199833;0.12562725876801129;-0.2917585076113292;0.281649810121386;0.3283012709234524;0.720773496372003;0.0
-0.4122108917538428;-0.030966786541505097;-0.21999104219644472;-1.1439225811240172;-0.9437303433373028;0.25946531788268384;0.0
-0.24038752968473082;-0.2035517797460457;-0.3205037640891621;-1.4553089675627164;-0.8341534243767181;0.6665019459614949;0.0
-0.3088986338021107;0.18986585306929238;-0.12720705028533055;-0.6050017068268267;-0.9999631824599696;0.6122303955509868;0.0
1.1586542737358814;-0.5078852264011499;-1.8623689179234377;-1.6415064954445946;0.5720906669947856;-0.09329975978561912;0.0
0.6425846729756829;-0.22871528364441474;-0.014343861898551205;-0.5242592583765381;-0.42713821598501084;1.073538574040306;0.0
-0.4803276598410143;-0.2956162957903082;-0.12300754272107538;-1.339624770713661;-0.9380732669593624;-0.03902820937511098;0.0
-0.02280118691237878;-0.2102066804630349;-0.14913781200977572;-1.0624658916839012;-0.7011674140909461;0.39514419390895417;0.0
1.113615252192123;0.01995542977153463;-0.235321858084789;-0.3277142389257099;-0.2387935396602544;1.2363532252718303;0.0
0.729335831381528;-0.6843953683510828;-0.21340004403954602;-1.455960049492431;-0.2671500924605118;1.0192670236297978;0.0
0.8253987666575163;-0.28690262722694754;-0.14913781200977572;0.13441985237979256;-0.38713029915427605;0.9107239228087816;0.0
2.3749958109451765;-0.7824220619980369;0.09648671930401172;-1.55759412033559;1.9707187982678072;2.8102281871765666;0.0
0.005378569995515069;-0.3314592719296332;-0.12263156762339603;-0.795335729714453;-0.22086746356903583;-1.205866543201036;0.0
0.7125965312705447;-0.13596084907585243;-0.27766227606931465;-0.3486515070180517;-0.3524107831997755;1.2363532252718303;0.0
1.2721639149792552;0.42143759440095113;-0.31446201577867045;0.9015309437661965;0.13374202483378397;0.6122303955509868;0.0
-0.600795999117626;-0.28461850251665605;-0.12653432753304783;-1.9721507407473002;-0.9034634352626926;0.6122303955509868;0.0
1.2597227634281978;0.22690874571257091;-0.14913781200977572;0.6448954554206819;0.3119707979484551;0.5579588451404787;0.0
1.6787180952657053;-1.4893714560288567;0.14173334349339362;1.3401118968871486;1.2385940026797686;-1.151594992790528;0.0
0.1260418074647751;-0.40912711373646865;-0.03663802667521675;0.9877565773031052;-0.17026406995970653;-0.36465751183815986;0.0
-0.3347498153670436;-0.041493539569150854;-0.3430519156785545;-1.1118709816335728;-0.9157243815210465;0.3680084187037001;0.0
1.3169404980965622;-0.15391849537692448;-1.8685095312062825;-0.5223773131341548;0.4415101844127585;0.8564523723982734;0.0
1.0307820764137898;0.2546001602626916;-0.3364785562321553;0.24151106729234698;-0.34708588291608444;1.1820816748613223;0.0
1.5743805300753249;-2.199356405278262;-0.1156435577397141;-1.3207382510733956;1.2283817908588441;-1.3686811944325605;0.0
1.0594024016927928;1.3471811834139091;-0.0052171881931038395;3.2763289379223344;-0.44776586363648385;-0.418929062248668;0.0
-0.07487092833728727;-0.6726468453688486;-0.12204687105604935;-0.4090197084089142;-0.16040453135359603;-0.7716941399169709;0.0
1.1794086927655028;0.1520400115160464;-0.14913781200977572;0.14019137805064982;-0.20312296934937143;0.6393661707562408;0.0
-0.07820525961522969;0.2857697568678947;-0.19248331753573752;-0.3937488937724504;-0.8749001387017705;0.7750450467825112;0.0
1.1015792462430598;-0.13804261566288364;0.008121796453319547;-0.33116146837890253;-0.28979057500960415;1.073538574040306;0.0
-0.14235346122101578;-0.013809180848754165;-0.14913781200977572;-1.08509552976103;-0.8049603462909822;0.23232954267742975;0.0
-0.034900192873888444;-0.19792648909818494;0.03640589869488213;-0.48896440236946337;-0.562429749510598;-0.09329975978561912;0.0
2.460589750779144;-1.431312876633515;-0.31361852494311526;1.5278875539915415;2.175010314447884;2.918771287997583;0.0
0.07419867266821126;-0.2429944756363403;-0.17420153969485602;-0.5629370161554259;-0.3914280479065086;0.04237911624065124;0.0
0.177290742439064;-0.15518805079597606;-0.14913781200977572;0.01364281473191417;-0.3494567934727297;-0.011892434169856905;0.0
0.7183794354915336;0.9235277117083327;-0.1957753812465705;-1.1327338641489682;0.06430278003295946;0.2866010930879379;0.0
0.050748599068440085;-0.47895735649856863;0.8333603132453707;-1.0862937494103466;-0.29800258081263137;0.06951489144590531;0.0
-0.2758969161124627;-0.0776495311931277;0.35043750591657036;-0.9791264353156464;-0.9077950135930768;0.8021808219877653;0.0
-0.12293351607394844;-0.03365110073743215;-0.45255635069151234;-1.0996732358261654;-0.8374921883889682;0.6936377211667489;0.0
1.2173419777548369;-0.05657197487140167;-0.2948472797382931;0.1309124080840242;-0.23638032887556193;1.2092174500665764;0.0
0.8978598079264962;0.09221127816589812;-0.42440668330970854;-0.022355801923852725;-0.3684595488111894;1.1820816748613223;0.0
0.9424966872160143;0.06692467546314085;-0.011832173387161792;-0.3687228365233371;-0.3410126782839204;1.426303651708609;0.0
0.9474483242008778;0.014885969995436956;-0.17106857373422046;-0.06618589208841649;-0.2994726679322141;0.6936377211667489;0.0
0.11568502288363064;-0.37069305902375965;-0.25077554910513594;-0.741788123252853;-0.2628264430999942;-0.20184286060663542;0.0
-0.37352836892836716;-0.2879424739622365;-0.3513287371766129;-1.2856944892479263;-0.8869642295388427;0.9649954732192897;0.0
-0.38523135298715633;-0.023536580728659707;0.14365964253646074;-0.734784551662253;-0.8134375156834964;0.04237911624065124;0.0
-0.29512466951079536;-0.11522380820021223;0.06342187855023204;-0.8822628720300089;-0.9234678665878578;0.44941574431946235;0.0
1.0977837949059344;-0.045167687539778754;-0.2908442723831141;-0.09433963949463792;-0.1926882212880783;0.7750450467825112;0.0
3.0749166981622778;-1.5411737677229298;-0.030832418487080605;0.2095963614465731;2.475037282743482;2.891635512792329;0.0
-0.09115777235144053;0.2706901955169443;-0.19519241163111056;-0.612252473601266;-0.8727431675914239;0.5850946203457327;0.0
1.6930254561586708;0.09411720735824497;-0.2607853262433154;0.20817787787025802;0.404443998323883;1.426303651708609;0.0
0.08414541469948701;0.16477140804768772;-0.3453467571420903;-0.6329858594530964;-0.804401944357358;0.8021808219877653;0.0
2.0293489124638304;-1.23517863525885;-0.08153472999680732;1.152758334351931;1.1117384838136952;-1.3686811944325605;0.0
-1.1035576909555522;-0.5437722912622823;-0.12489854905117848;-2.629572008937597;-1.0856364396320082;0.12378644185641346;0.0
1.1809008701903987;1.1560297083680575;0.025122835206086713;0.09431446558392746;0.006865218893641037;0.6665019459614949;0.0
1.9762406064688869;-0.9507353157129129;-1.643259384978432;-0.47748426983835107;1.7758407398430116;0.6122303955509868;0.0
-0.5906726295327448;-0.4991169093991014;-0.3245839058053374;-2.22157492742345;-0.8528226082722367;0.04237911624065124;0.0
1.4823116830200853;0.07473775292955277;-0.3343853635592792;0.3416415205928756;0.5707328949790735;0.7479092715772572;0.0
1.8693113340423393;-0.5255635108756329;0.5295615508309502;3.5464129313355572;0.9621294352871113;-1.3144096440220523;0.0
-0.5466950620005712;-0.17861725731688552;-0.17174129648650402;-1.2659992053907632;-1.0020826514106131;0.720773496372003;0.0
1.0252222442467127;0.0034703559951616858;-0.10629632398992914;0.3864433337153804;-0.37412028258080965;0.8564523723982734;0.0
2.2194779324640974;-1.8109654993799078;-0.11533627100329152;-0.7274679796115289;2.2387533710649734;2.8373639623818208;0.0
2.829133775898368;-0.45592982496288104;-0.013931647983838093;0.1181158806702949;3.180702554866256;2.918771287997583;0.0
0.23776360374621533;-0.2100923095448005;-0.30372667787159957;-0.2978836910412737;-0.24626152676592966;-0.06616398458036506;0.0
-0.4719670806964608;-0.040433785274979366;-0.17160347036164647;-0.7965311735001716;-0.9865094784357186;0.8021808219877653;0.0
0.9701451805531995;-0.2532597203278726;-0.2149300971831112;-0.47667961829908634;-0.3452594938872737;1.1820816748613223;0.0
0.19241888740051158;-0.24742048824591165;-0.2010303186253648;-0.5600505731391631;-0.30242850279591416;-0.17470708540138133;0.0
1.665052016441739;1.5539286366224905;0.7426200405307235;0.364161714230219;0.42100167486613144;0.4765515195247164;0.0
0.22108508061130533;0.01809794058301456;-0.01848646556627239;0.05402172944025755;-0.2823750421077738;-0.3103859614276517;0.0
0.24390289186725014;-0.1113398162105996;-0.29651253079804785;0.13652878765266652;-0.24851471768147837;-0.011892434169856905;0.0
0.048056327759169924;-0.44064774832779335;-0.14913781200977572;0.40097562009963394;-0.12086964601958315;-0.39179328704341393;0.0
-0.08121112881921297;-0.012081601292793199;-0.22331971744011386;-0.7364657232039904;-0.6733340196280613;0.3680084187037001;0.0
-0.08823535867628277;-0.00027145946991145024;-0.38753809240256865;-1.08837823467732;-0.7786574750292572;0.8564523723982734;0.0
1.1464044994421803;0.22732443934023108;-0.09866701790420292;0.3433932875641371;0.31960274632230395;-0.7174225895064628;0.0
-0.41993988106390867;0.11625602843054314;-0.008333940556013508;-0.9609333014508876;-0.911155269086185;0.2866010930879379;0.0
1.132855580765815;1.3143510409061148;-0.46175085186368603;-1.3627412724089654;0.2520378940512403;1.453439426913863;0.0
0.1667433455429056;-0.31107005952691613;-0.2788690785487474;-0.6615832104362821;-0.29947981819559044;-0.06616398458036506;0.0
0.176564919306505;-0.0465944815237209;1.2293672106696392;-0.08541809499044653;-0.3976850632079909;-0.06616398458036506;0.0
1.0335427121248424;-0.01991786055010112;-0.1279632834482422;-0.2172666444593345;-0.28157905722363236;1.127810124450814;0.0
0.04291898612821193;-0.1736596846827273;-0.29952017812025794;-0.24608055138962728;-0.41867427282123826;0.015243341035397168;0.0
-0.43982322245701955;-0.2806770375440167;-0.22536611483129587;-1.5251013630654746;-0.8600659642645614;0.04237911624065124;0.0
1.2933247666711982;0.3007104510526667;-0.0859772182433735;0.9491519509548778;-0.2929191224000472;1.2092174500665764;0.0
0.12901994776164233;-0.3386355681024322;-0.06961907885063665;-0.48404114744639926;-0.23218977646536054;-0.17470708540138133;0.0
-0.07241693807481675;0.1442295211779364;-0.12639479985109167;-0.3264901296687754;-0.8582114099874292;0.06951489144590531;0.0
1.0944753252938446;-0.11082254330552109;1.8907947361894697;-0.6703856211773837;0.31955005931241925;0.3680084187037001;0.0
-0.32819567788130444;0.06941672768920903;-0.17160347036164647;-0.7240382117276212;-0.9269790866384072;0.6393661707562408;0.0
0.4313051122576499;-0.29171251864339603;-0.17068382352852957;-0.26708810519887466;-0.5152138260375783;1.1549458996560682;0.0
0.15121996706801538;0.1118276235705392;-0.10279356081849522;-0.835355617939286;-0.6726956769639826;0.44941574431946235;0.0
-0.06141577072409575;-0.9566806553006449;-0.23041063487095526;-0.08030277987262593;-0.13762541953260188;-0.6360152638907006;0.0
1.9654091194685885;0.009642764430885752;-0.2480470192502266;-0.08451754239955622;0.6766520073722714;0.5850946203457327;0.0
1.3213486046553764;-0.1359747027862306;-2.102969311096715;-0.3566903655995186;0.5612985797521814;-0.14757131019612726;0.0
1.915923815076899;-1.4704852682574001;-0.3413657060814354;0.38672361189538906;1.0918998600364747;-1.4229527448430688;0.0
-0.2250844471187962;0.03891379238546966;-1.6381569914767726;-1.2730460294512598;-0.8187274376149687;0.6665019459614949;0.0
1.6927393424844839;1.2291059388926324;-0.17216511182044314;3.7145086742520554;-0.008600643243314216;0.2866010930879379;0.0
-0.32682747725533806;0.22048546241592087;-0.14913781200977572;-0.7895922463427022;-0.971610703845383;0.5850946203457327;0.0
0.05647990481075104;-0.17408934351695038;1.1113038618372872;-0.5800723278788338;-0.32502462031119894;-0.011892434169856905;0.0
0.6086052243398247;-0.2896436054526768;-0.06947580185395301;-0.5118390860000971;-0.4561122123920019;0.8021808219877653;0.0
-0.43571168954520006;-0.023372203869315305;0.11575138842666077;-1.2183773766306374;-0.9490509297639762;0.39514419390895417;0.0
1.5321186420514081;-1.8382540568659218;-0.18233031624136858;-0.1733515875493679;1.0052782917910215;-1.3415454192273064;0.0
0.04167679517507965;-0.22137387213061577;-0.14913781200977572;-0.31047234218004727;-0.3722097081034201;0.06951489144590531;0.0
0.8309969502143134;0.015962118727762882;-0.19053520492782977;-0.03970190863494291;-0.3235919971141166;1.0192670236297978;0.0
-0.11643030220738894;0.4226868232803027;-0.21653478706538756;-0.32747211072291266;-0.8990431611947677;0.720773496372003;0.0
-0.007369033605401233;-0.4639606546734632;-0.17386511381988845;-1.136453330531067;-0.3031601767896749;0.1780579922669216;0.0
0.8797157515731084;0.05554312578233344;-0.29821628477247875;-0.04407695369268439;-0.38673384124255966;1.127810124450814;0.0
-0.008068498131444802;-0.34158405357645133;-0.019406545470804056;-0.9316788705248272;-0.4525166798331229;-0.20184286060663542;0.0
1.0146984796955394;-0.28978954619905845;-0.21302858605093428;-0.5324291070428568;-0.22086305070417378;0.6665019459614949;0.0
0.029779957527133066;0.21718283059097163;0.042257926676291885;-0.48259250090453076;-0.8357003194920078;0.2866010930879379;0.0
0.24616740930830358;-0.12502327400889096;-0.3716835283007906;-0.057194399901872854;-0.25404581053145586;-0.011892434169856905;0.0
0.2127099598441235;0.14214057118809892;-2.0642795784415284;0.15515321923643105;-0.3511809090615866;-0.03902820937511098;0.0
1.1316985955599583;-0.19970227957026826;-0.17081056477275683;-0.7859758577370122;-0.23489006969570472;1.1006743492455602;0.0
-0.4452887705137669;0.04936193602344473;0.03741246493740421;-0.8773545751624381;-0.9697345747660454;0.44941574431946235;0.0
1.6546096560015457;-1.8033660673151575;0.05367143402913031;0.28451828761250664;0.9399694117590106;-1.3686811944325605;0.0
1.2160389932737583;0.0653788987603814;-0.3375429922788735;-0.048148294403767625;-0.22658050862692386;0.9649954732192897;0.0
-0.2272652283087752;-0.06727674065106964;-0.25624153205939176;-1.1037117034306527;-0.8712389702230087;0.8564523723982734;0.0
1.155433343402169;-0.5857593177536788;0.18151059552801369;-2.0625735299385166;0.5615128898101057;-0.8259656903274791;0.0
1.3918300245625215;-0.13758953781404862;-0.2442182757441446;-0.7216268833483301;0.4477738200761651;0.15092221706166753;0.0
-0.36050105516601294;-0.03402635761127086;1.0482817781449343;-1.5691023602128005;-0.8962172799453381;0.5308230699352245;0.0
1.1206291153316437;0.09716430167486126;1.053398955880638;0.3764085862714737;0.41977065045513573;-0.20184286060663542;0.0
0.04592464352187991;-0.3039927096419917;0.033774073011129106;-0.32590429178180874;-0.3943451923514637;-0.14757131019612726;0.0
0.09153911433397295;-0.028473753785126718;-0.19960860611534853;-0.017868131620584208;-0.4617416304059874;-0.1204355349908732;0.0
0.5622728430507962;-0.4694680821760723;-0.19148686913284235;-0.5398125307633433;-0.4197487465896259;0.9649954732192897;0.0
0.7231440738722147;-0.5382470646191295;-0.007431351636437757;-0.7289507895510839;-0.42018541915828683;1.1006743492455602;0.0
1.0439906177635847;0.1043705018972755;-0.21123390138685638;0.23083323208963322;-0.3786022014147093;1.046402798835052;0.0
0.635008120148893;-0.3493745546269339;-0.7328000646365956;-1.3635976350082055;0.3507641789823633;0.6122303955509868;0.0
0.812554550426425;-0.3046847593431917;-0.39476234332356275;-0.40466109525255023;-0.31771039848609506;1.1549458996560682;0.0
-0.1033154177066077;-0.5064765375584909;-0.11942516709278461;0.19816885391144454;-0.16245709554159263;-0.798829915122225;0.0
1.7300031559160174;-1.438725975031645;-0.18293935301625994;1.0252285763754554;1.016355832572253;-1.3686811944325605;0.0
0.6649239539488881;-0.5475574177759884;-0.22967044522741079;-0.8956182050305116;-0.32710452686472324;1.2634890004770845;0.0
-0.2639753097776157;0.18404642037634059;-0.009225104299390977;-0.7593109731562394;-0.9116176071222176;0.8021808219877653;0.0
0.6304766601088605;-0.32353604335519887;-0.10973280698617342;0.7544110273119099;-0.6069806142073491;0.9378596980140357;0.0
-0.6824850938292959;-0.22073526234358867;-0.14913781200977572;-1.564854258615105;-0.9854671927431471;0.7479092715772572;0.0
1.669496391248744;-1.4082903233738073;-0.24916590168507394;-0.3041666510641343;0.9992519416628047;-1.4772242952535768;0.0
1.1919687340347493;-0.24112899465460869;-0.33108190927924774;-0.7214961104065192;0.11706288807017276;1.0192670236297978;0.0
0.2198925170246574;-0.22112093432840035;-2.3206010598562954;-0.26444253509009863;-0.23531559354832104;-0.1204355349908732;0.0
1.1923511149378336;1.5312032260155715;-0.01848646556627239;0.30581182821989605;0.21036389373339526;-0.14757131019612726;0.0
1.429782204535574;-2.018091754017695;-0.14913781200977572;-0.9368411124160394;0.9482284478047119;-1.3686811944325605;0.0
0.2857863189467515;-0.11260188165912653;-0.27113675140404003;-0.021540972842620437;-0.22455667936277973;0.04237911624065124;0.0
0.8762867288870725;-0.12908948432687808;0.04102311545896202;-0.6691658890184973;-0.3057036910303042;0.8835881476035274;0.0
1.4213387530616308;-1.9641761717488255;-0.013931647983838093;0.462640465547347;1.1073939762888874;-1.3415454192273064;0.0
1.5497573329684036;0.10492376708332214;-2.5771504203989313;0.5062047040677308;0.41242580935210144;0.5308230699352245;0.0
0.3310675607243242;0.21979534252548832;1.7500209352617706;0.5396267982173407;0.07907612467062523;-0.3103859614276517;0.0
1.6878126744650084;-1.4957944897180238;-0.14913781200977572;0.7255170528722792;1.4326940704196587;-1.0701876671747657;0.0
0.7529956945095767;-0.14950905470960413;-0.301744769334909;-1.657266148320253;0.6396244185476866;-1.0430518919695118;0.0
-0.5941658869543472;-0.004330441643340394;-0.03816287316318561;-1.0363552231375592;-1.0246333624430535;0.5308230699352245;0.0
0.4288486344448162;-0.22033988637840862;-0.06540217633462125;0.05793097356515766;-0.5253929591468856;0.7750450467825112;0.0
0.9838639214517065;-0.15078606755939275;0.0779807614653011;-0.9306379531245526;0.20229603938874008;-0.20184286060663542;0.0
0.2063246054403008;-0.11485712223102557;-0.17508406531757006;-0.25718938727405416;-0.3111933004739946;-0.22897863581188949;0.0
1.4039652112215004;-0.2936423930848792;0.021660703142194385;-1.0343171333982986;0.5084038431764455;-0.09329975978561912;0.0
2.9229667878951817;-0.01599741605277638;-1.9224551058406187;1.391793766111574;2.429571029531864;0.7750450467825112;0.0
0.08938455104467831;-0.63387248228429;0.007643803722428767;0.6378629686940176;-0.11727373489022593;-0.8802372407379873;0.0
0.20095251500750785;-0.44623907413385155;0.05413766218094469;0.14149114245364033;-0.1843398872270774;-0.44606483745392206;0.0
-0.34014798290907944;-0.04203907996363112;-0.17260512391873623;-0.915115439847323;-0.9390821831765809;0.9378596980140357;0.0
0.39100166020938415;-0.5796015107725894;-0.1912448745207111;-0.735207026701968;-0.46278424305453164;0.5850946203457327;0.0
0.38143202711667795;-0.21253402116564546;-0.09495593010232298;-1.2876598420459306;-0.5002397209438505;-0.011892434169856905;0.0
0.14108516867040355;-0.4415672083941484;-0.22382094653086;-0.9833085181929089;-0.23642579278668574;0.09665066665115939;0.0
0.9278982300225698;-0.5173728671125531;-0.17068382352852957;-0.881390950965131;-0.289395756368481;1.1820816748613223;0.0
0.992554683501199;-0.18239646588020794;-0.10750653551591395;-0.6433592384394835;-0.27384423737548524;0.8564523723982734;0.0
1.0337928493239987;-0.23316286163901354;2.547915865161215;-1.0835379355148802;0.3431327658300113;0.2051937674721757;0.0
1.2449542417843504;2.29772121778086;-2.44290775423969;-0.19114253082686763;0.29261897548015375;0.9107239228087816;0.0
-0.10799384900116957;-1.6870124076668025;-0.06947580185395301;-4.032872613897543;-0.5472815865618783;0.9378596980140357;0.0
1.2818416652728746;0.41742927179484546;0.7011009502302553;0.9508859230914266;0.13798071260697076;0.5036872947299704;0.0
1.5701602054720656;0.07170980715106084;-0.013516905149401856;0.27782208203545644;0.4798889779105192;0.8835881476035274;0.0
0.22901204361751937;-0.18738308147790408;-0.10001290574701807;-0.25016500865437663;-0.29678372592280217;0.06951489144590531;0.0
0.609843766709042;-0.3719896654640397;-0.06244680095785132;-0.3472442358780328;-0.45274065213613157;1.2634890004770845;0.0
0.16197830229830842;-0.5463134977771165;-0.06411393578577294;0.5051456717622472;-0.09984376161203451;-0.6088794886854465;0.0
0.29636877664239086;-0.1873085321466655;-0.29362283042965015;-0.08115106182113278;-0.26106248903619533;-0.06616398458036506;0.0
2.8064950103651722;-1.1011422814303202;-0.14913781200977572;0.11825530384431698;2.877556448637013;2.891635512792329;0.0
0.07627503279350942;-0.37509029233825153;-0.09612532323701634;-0.6498454242124437;-0.32169676834818123;-0.14757131019612726;0.0
-0.04882024328672042;-0.11423112732075742;-0.17545472607911033;-0.4413914772978358;-0.5545041936388303;-0.3375217366329058;0.0
1.481852823742407;-1.6459295284779012;-0.18263206627983736;-0.7879530916486981;0.8662125120854632;-1.3415454192273064;0.0
1.3777351711684325;0.015516718344907839;-0.17160347036164647;0.2050658702915645;-0.11126152411313547;0.9107239228087816;0.0
0.015264404952175117;-0.4786408968635531;0.02996340873986058;-1.0624452383989804;-0.2701376267044675;0.06951489144590531;0.0
0.057918406218781415;0.01730667648748644;0.052745364412514685;-0.24209396100213773;-0.37144331442610196;-0.1204355349908732;0.0
0.5238379293305967;-0.15032044177230755;-0.41523105426637785;-0.33904218711508105;-0.4832713865742824;1.6162540781453874;0.0
-0.4675590468726919;-0.13586532456421654;-0.1256705001008152;-1.1068175971969394;-0.9798615665386532;0.313736868293192;0.0
2.530338299863953;-0.09518501362098938;-0.21377584656603515;0.8380380778202218;1.7205064003958561;0.8021808219877653;0.0
1.6529665898079424;0.0596473983507173;-0.08373483029900379;0.06049102774109635;0.39932164446041474;0.313736868293192;0.0
-0.1988157725265167;-0.2718338494895804;-0.25007940022092096;-1.6476403118773855;-0.2269772599934976;-0.1204355349908732;0.0
1.8105026184654203;-1.4947743497333439;-0.2149300971831112;0.9531911820001567;1.0146814620604243;-1.3144096440220523;0.0
0.38944237140997534;-0.13567751668276623;-0.016606590077876442;0.5746309727748543;-0.32321909909587276;-0.17470708540138133;0.0
1.786070856546793;-1.4468699364529993;-0.8553083395369124;1.565804316067208;0.9595873070500442;-1.3415454192273064;0.0
0.7905552771266685;1.2778818838482326;-0.05218076017538594;-1.0896332924963945;0.19944684893116849;0.1780579922669216;0.0
1.3289826402579945;-0.23259595722291712;0.21156954166781317;-0.5505325225081644;0.34873884343157263;0.2051937674721757;0.0
-0.0067221763688399315;-0.33904295911672794;-0.045352798778598394;-0.6031676539461595;-0.3526457766015929;-0.3103859614276517;0.0
0.3390110910151142;-0.884380274231435;-0.17216511182044314;-1.0894545109411764;-0.31083877597809106;0.34087264349844604;0.0
1.5492168310771706;0.34167741909493227;-0.14913781200977572;0.7491675829775047;0.3947785457841348;0.2051937674721757;0.0
-0.6668843499779527;-0.6358510872148883;0.01833345934053323;-2.5531580737281288;-0.8628124909129278;0.313736868293192;0.0
1.3921199997890614;0.197693292358137;-0.14913781200977572;0.32735816323425604;0.5402218450345756;-0.9887803415590035;0.0
-0.15816341452898194;-0.18179820853310136;-0.2010303186253648;-0.006941048587242472;-0.5150922946043904;-0.22897863581188949;0.0
-0.07343165254751004;-0.4009124748134045;-0.17420153969485602;-0.849021062435326;-0.5000756116634086;-0.03902820937511098;0.0
1.5156746261833436;-1.5732048089186947;0.05941131835098651;-0.420418082438137;1.0978885627976693;-1.3958169696378147;0.0
0.6235788407055907;-0.3516979732078287;-0.2520531184261669;-0.29285621015852725;-0.4012054258516908;1.2363532252718303;0.0
0.9627125195147688;0.03905933133547866;-0.16972087329305413;-0.1752560649666502;-0.30352810821909215;1.2906247756823386;0.0
1.1459165284861064;-0.23151122334820712;-0.08524703796861757;-0.3319410739450566;-0.2356510400044615;0.8835881476035274;0.0
1.5061055761935425;1.5962033835705172;0.06479323139255475;0.7047672703695383;0.31323075593808003;-0.011892434169856905;0.0
0.5124926155477193;-0.31119372005659157;-0.02209064064057628;-0.3810851126168601;-0.5324915424833038;1.046402798835052;0.0
1.379248545646157;-1.9939222262398555;-0.016367795083405082;0.07420164642904346;1.1928465678211941;-1.3686811944325605;0.0
-0.7082778876945077;-0.22890609673138118;-0.10097613920315106;-1.6924611230279125;-0.9727718017748453;0.7750450467825112;0.0
1.1585487359141033;-2.6425714759591448;-0.2487153247045539;-2.507764524432432;0.884452709028961;-1.2872738688167984;0.0
0.229980649674608;-0.321585551336768;-0.23041063487095526;0.37325663584734126;-0.14058204998623947;-0.5546079382749384;0.0
1.2130382522830827;0.813621906673398;-0.4581493191464755;1.9381015159268975;0.0033237968627161728;-0.1204355349908732;0.0
-0.37175069508039044;0.25063877626759856;0.01306706715970601;-0.6387124937538664;-0.9578652364196601;0.313736868293192;0.0
0.13130163609666717;-0.2924606266512705;-0.14913781200977572;-0.29834657590297187;-0.3071456800076905;-0.3375217366329058;0.0
-0.611998962558059;-0.20783265723474761;0.008121796453319547;-1.5732342107551567;-0.9959955856066823;0.4222799691142083;0.0
0.15713881812273975;-0.08429787383323976;-0.14913781200977572;-0.059764132407451535;-0.3051549127283169;-0.25611441101714355;0.0
-0.026154800784812044;0.13719465490323932;-0.059819800622944445;-0.8622876436889524;-0.6726081449068899;0.23232954267742975;0.0
-0.5243122306575081;-0.05673947266994972;-0.10447880631635968;-1.1976958862770444;-0.9521697632924261;0.4765515195247164;0.0
1.2842520453700381;0.040958851860201394;-2.567448834597251;0.05485418972990326;0.4595022616221133;0.5850946203457327;0.0
0.28421892888226347;-0.3123901890826928;-0.026325546352882;-1.8815381865514316;-0.420757692730288;0.2051937674721757;0.0
-0.527719260925649;-0.0963512248817543;-0.07394662895453563;-1.054445308226023;-0.9981643886264371;0.2051937674721757;0.0
0.3907153073295886;-0.5842459695522796;0.06506962808945722;-0.7121761527955217;-0.5616953817239164;1.2363532252718303;0.0
-0.009828777386129474;0.19574873770198986;-0.19462383632714342;-0.7313420343489624;-0.7813673642733082;0.720773496372003;0.0
0.42546284798827283;-0.3066305127121433;-0.04735969129964297;-0.7372040543828021;-0.52989776075993;1.2634890004770845;0.0
0.9866537124418957;-0.03419309084312135;0.10103532173574722;-0.6310310136944354;-0.22896690544075324;0.5036872947299704;0.0
1.227231866493688;0.22925765179665064;-0.09245522786044136;0.5956596848980134;0.2544908093889869;0.15092221706166753;0.0
1.9459317924849495;0.04164321319334949;-2.6107461061806947;-0.14282997506243023;1.1305992539966478;-1.0973234423800198;0.0
0.8805402371441974;-0.3591077095546223;-0.34937520166775365;0.03948918503813043;-0.39554205344127313;1.6433898533506415;0.0
-0.38503978945298206;0.16216208713500604;0.05061707791408697;-0.8137197906617207;-0.9558848808395202;0.4765515195247164;0.0
0.09669474139777758;-0.3369155241882215;-0.32949148884857016;-0.6998467541340848;-0.2891109552501131;-0.25611441101714355;0.0
1.148287643626439;0.11805871109429546;0.028422090144768618;-0.1570592730798424;-0.2144403933253377;1.127810124450814;0.0
1.8867710878773536;0.39552284657371634;0.1284515555708739;1.1233858577627176;0.8802832250688789;-1.0973234423800198;0.0
0.30342763400818523;-0.44183599572886234;-0.0666519619417132;0.4240769174219185;-0.06377461182301566;-0.39179328704341393;0.0
0.6519784879661324;-0.0004999095359317926;-0.01833184858823267;-0.5786302413273582;-0.4262908154219585;0.8293165971930193;0.0
-0.4183047862858602;-0.1829464901247846;-0.26215523439341964;-1.4728875386172624;-0.9227581558966191;0.8293165971930193;0.0
1.9656484594519688;-0.8645896079934299;-0.28311482909002306;1.5109862636436573;0.9393674995420952;-1.3958169696378147;0.0
1.6218357388559994;0.24013108283741233;-0.2614661037691295;0.4923985149389986;0.741368108675391;-0.5274721630696843;0.0
-0.3094819698438324;0.12580622505680186;0.9561725789022645;-1.0452339905842445;-0.9739977655985688;0.3680084187037001;0.0
1.6045800100706744;-1.389847399817096;-0.1156435577397141;1.8032433585062504;0.9391679541163249;-1.4229527448430688;0.0
0.6648636777505138;-0.09358335057624373;-0.10604578897226888;0.3393584458718463;-0.4307952876684433;1.2092174500665764;0.0
0.549324772974176;-0.4380719888011793;-0.23101265578103847;-0.11750897014178092;-0.4928474394237714;1.127810124450814;0.0
1.2856401775511808;-0.05038468485893025;-0.33970856906357527;-0.23772471100932321;-0.17300975924115783;1.3720321012981007;0.0
-0.46857733006618874;-0.26452271108094677;-0.0374902977762356;-1.497161829161882;-0.9190821964308855;0.6122303955509868;0.0
2.224605299407212;-0.7693321474939543;-0.11624166942310799;2.0856468306231317;1.7640308473417865;-1.3958169696378147;0.0
-0.21694767791302946;0.1317632250570752;-0.14913781200977572;-1.097524532816121;-0.8446904265462553;0.4222799691142083;0.0
0.6692583215660312;-0.34805326555491933;-0.12832217376284444;-0.30327161669785185;-0.4127168474603859;0.9107239228087816;0.0
-0.47040194234250027;-0.03907080656168317;-0.21953974773665766;-1.195567303570702;-0.9385082789483676;0.6936377211667489;0.0
1.9346664427972362;0.24182270265140546;-0.2657317351017633;0.5286520429127122;0.7252083596545742;0.720773496372003;0.0
-0.025066758290662895;0.051276747681795305;-0.3026531440808923;-0.004208604985213653;-0.517002278220809;-0.2832501862223976;0.0
0.8860444336046567;-0.37006660260097946;-0.06295376593476286;-0.6919377249371265;-0.2755989541361362;0.6936377211667489;0.0
-0.3789036779058291;-0.2612044412453002;-0.3266977141643205;-1.774199586228348;-0.8890285911240465;0.8021808219877653;0.0
1.6689287373589736;-2.071354108403786;-0.14913781200977572;-1.123624611837909;0.9777152703347463;-1.3415454192273064;0.0
1.5754955086751665;-1.788764905828452;0.01986989302264693;0.3256578532977357;1.0733619786595754;-1.2601380936115443;0.0
1.0542888296119461;-0.1217114749660499;-0.3119828051459883;0.4566872250796197;-0.3660633969040268;1.1549458996560682;0.0
0.9715166122053298;-0.3725066005537945;-0.14913781200977572;-0.006694413413450731;-0.33866538601411494;1.3177605508875927;0.0
-0.03319893048147081;-0.6367850535140096;-0.26163759734433467;0.7403928149532941;-0.1625296831479685;-0.44606483745392206;0.0
0.1269227598865942;-0.3785844395009019;-0.22697657193315912;-0.6128477313399852;-0.20985229808706243;-0.1204355349908732;0.0
2.746022763507721;-0.9794962578688007;-1.915615605704817;-0.0017701328604243088;2.8058866136716047;2.70168508635555;0.0
0.11455216567383941;-0.5054189586268402;-0.03400131295643822;0.10652519684179802;-0.22730793468733482;-0.3103859614276517;0.0
1.13160416199819;-2.1504402855305935;-0.21552282047296104;-1.3565598197454403;1.114783457656855;-1.7214462721008634;0.0
1.6369224772019348;-0.16708213547700923;-0.19826271827253256;-0.554128655245933;0.5493622726401147;0.04237911624065124;0.0
1.4822085821232764;2.2966326486895094;-2.0548453825477755;-0.021422633470258426;0.6106997412733384;-0.03902820937511098;0.0
0.09602303573993058;-0.39570312389188195;-0.1989265683571652;-0.877476005946309;-0.25300651526001516;-0.20184286060663542;0.0
0.9176461545654302;-0.2183333993010971;-0.17093880591336638;0.22120794004693414;-0.34713720900868533;0.9649954732192897;0.0
1.3592867927713126;0.3919994702530269;-0.020313757124922432;1.0202805914017385;-0.20101913769935117;0.6122303955509868;0.0
0.9675128847962422;1.2668695200033206;0.008121796453319547;-0.448008352537613;0.12164039747784311;0.2866010930879379;0.0
-0.40133799464322456;0.08533225462905013;-0.10365178769240843;-0.7146848931590516;-0.9679256756319188;0.3680084187037001;0.0
1.2451788160941315;-2.3520727818415748;-2.0496715158404326;-1.4920606119435404;1.0349296115959559;-1.3686811944325605;0.0
1.1165148189760297;-0.27135528025846256;-0.14913781200977572;-0.45052252621977684;-0.1687701576676941;0.9921312484245438;0.0
0.1757276792844404;-0.21329769229313747;-0.2985040810519434;-0.3365573300292187;-0.090680328655109;-1.0701876671747657;0.0
1.5453808668798943;-0.36430834904454173;-2.4672193262836375;-0.646267596490902;1.0419586355208645;-1.0159161167642576;0.0
2.3829432410250027;0.021257380967044513;-0.04726588658009424;1.1122896474470916;1.8582280184744773;0.6665019459614949;0.0
0.685507961252925;-0.4207878150163402;-0.026325546352882;-0.13839101537107493;-0.45097756257536586;1.2092174500665764;0.0
0.8589376591662462;-0.5030292311953474;-0.29651253079804785;-0.22626095850433106;-0.3490915867346622;0.9649954732192897;0.0
0.9706944759009035;-0.15367442542745013;-0.30029136974133663;0.023306591594710185;-0.4083764240367194;0.9649954732192897;0.0
1.437510930978778;-2.2875119220127;-0.2149300971831112;-1.0758089964659026;1.1822441807243371;-1.3958169696378147;0.0
0.22140614305796508;-0.3018671878844814;-0.06845822143225425;-0.6153405128092737;-0.2768918126785353;-0.17470708540138133;0.0
1.4545456753974475;0.007128618745471686;0.14652134605311534;-0.10705829076155692;0.15059304634472193;2.3217842334819934;0.0
1.4883203147979067;-1.4602269510695007;-0.010105058435934237;-0.3119214452609956;1.04119447968131;-1.4500885200483227;0.0
1.2821331330811545;-0.10464936993410505;-0.4580069831229202;-0.32627050436851973;0.6895881957604802;-0.5003363878644302;0.0
0.3289909820164575;-0.0996267981089598;-0.14913781200977572;0.9883612308448004;-0.18545776564340366;-0.20184286060663542;0.0
-0.13401006928633735;-0.1335711257137403;-0.30736220334687747;-1.0923364882071593;-0.760060539202804;0.6393661707562408;0.0
1.5455684850436422;-0.28635969855984694;0.17940455471567135;0.0064794229194087;0.7139769692937256;-1.0701876671747657;0.0
1.664328251381366;-1.4146721516700507;-0.050449384249772494;0.4817019686705556;0.9066289062707085;-1.3686811944325605;0.0
0.509856015490364;-0.5347174379114726;-0.2594482302644708;-0.6390999193841751;-0.5330706880987849;1.7519329541716577;0.0
1.1614618745494227;0.09596116271375983;0.02527013921894862;-0.03623425592689615;-0.24607924591166228;0.8564523723982734;0.0
0.02852321818794018;0.23652692509257323;1.2515310029200823;-0.7754283905433696;-0.7871466226612048;0.6936377211667489;0.0
0.8466682102592163;-0.2412704123417995;-0.2754589995425806;-0.6712598954418589;-0.3122769435674479;1.127810124450814;0.0
0.4747479914597903;0.008810135199597469;-0.49125769491112103;-0.8145242758757565;-0.45105912183648156;0.09665066665115939;0.0
1.0977524224327808;-0.16483514962889803;0.0025714573310928;-0.058478210433024015;-0.27795340585970585;0.6122303955509868;0.0
0.654527843902684;-0.4535388442729727;-0.06492368698790581;-0.34317568216750377;-0.4466011027201087;1.3991678765033548;0.0
0.08185388584932954;0.2945231068678874;-0.26215523439341964;0.1728116274666527;-0.7187383563536254;0.313736868293192;0.0
0.18604299173458638;-0.4892254290675106;-0.14913781200977572;0.4070004829365494;-0.16009349951855045;0.09665066665115939;0.0
2.4489072554773554;-2.3191940114650675;0.0457085710035648;-0.7825444008126357;2.3783879486378874;2.864499737587075;0.0
0.050131780838865436;0.0477782174374815;-0.03471644649093119;-0.8269283349736927;-0.7196834627408775;0.34087264349844604;0.0
1.245433306306903;0.08344330138134677;0.06139750054489865;0.2187894726149991;-0.27516287033711273;0.9649954732192897;0.0
0.09582230349055779;-0.15702906049407706;-0.3270038519266561;-0.3687444568610681;-0.35399137057111324;-0.1204355349908732;0.0
-0.21072358714815487;0.1635894023553763;-0.14913781200977572;-0.8483677170032564;-0.8175015309499299;0.3680084187037001;0.0
-0.2539465632794978;0.07389514662676876;-0.12552006861421938;-0.5762641818394227;-0.9148881690034055;0.720773496372003;0.0
-0.05662550416560771;-0.5371415415936537;-0.07445467748869229;-1.341759376093828;-0.3060578303559437;0.15092221706166753;0.0
0.6957985010837197;0.16702263867170022;-0.12694282424045739;-0.5216653988316567;-0.9599295567594086;0.720773496372003;0.0
1.5423614262812673;0.07097441830550029;-0.08295156105695803;0.20245438132647975;0.4386108614409942;0.6122303955509868;0.0
1.0829374416036086;0.04497448804144473;-0.08295156105695803;0.04219730595763504;-0.3129260626963329;0.8293165971930193;0.0
1.4106985124131166;1.6767569179005608;0.39407028608802147;0.20899630999490285;0.2732685416214162;-0.17470708540138133;0.0
-0.5796955876238395;-0.14466993856563481;-0.17353759988862882;-1.2759179205874722;-1.0138430105990937;0.6393661707562408;0.0
0.15611859517132903;0.1794646855784299;-0.25148136672385357;0.4275764080616991;-0.45752087049944506;-0.14757131019612726;0.0
-0.5456169419589791;-1.3512836270241446;-0.04265318860784411;-3.4497822967411844;-0.6242989973998034;0.9378596980140357;0.0
-0.4792804952005871;0.07987987234040271;-0.2424129504833657;-0.3677543841185352;-1.059017848888921;0.23232954267742975;0.0
1.1478873982296316;-0.05162168974378806;-0.16983650846880316;-0.5128604833563335;0.3557472495629631;0.6936377211667489;0.0
0.9799600071535771;-0.520799280590766;-0.16916155097557323;-0.5673247620169998;-0.3353101405328337;1.3448963260928468;0.0
1.0618717125196813;0.2273033652434941;0.04253451011369954;1.6714612584811999;-0.4137835549250965;1.073538574040306;0.0
0.08399063687616447;0.20071901488457722;-0.17290792794336804;-0.3409074040972282;-0.8404638677332659;0.313736868293192;0.0
1.1170865394646388;-0.1615180320966701;-0.2328734476849306;-0.4756835559998296;-0.17370004935540478;0.8293165971930193;0.0
-0.30604628240135556;-0.9381529682906282;0.014611875532748966;-1.5490510074909385;-0.34028445018384373;-0.25611441101714355;0.0
2.0823254636502497;-1.0615942259585647;-0.045837775475940604;1.1789540424604115;1.4568161220379858;-1.3686811944325605;0.0
0.12884665916653038;-0.24733644442979913;-0.02209064064057628;-0.2796212170339807;-0.34434782426193145;-0.14757131019612726;0.0
0.10791635432336413;-0.32398348652710396;2.5498759332405547;-0.7060231169959751;-0.31849322724141915;-0.22897863581188949;0.0
0.1975844657185563;-0.5521631089116745;-0.2029242057281231;1.0969908404606765;-0.23444217374617576;-0.20184286060663542;0.0
-0.17774196967547512;0.15727779726058425;-0.34769656486822637;-0.6406405469023926;-0.9275120636941802;0.8021808219877653;0.0
0.4905768404452323;0.3511317668982208;-0.09650398387110734;2.0741987661195673;-0.1163261811756613;-0.4732006126591761;0.0
0.06723229430468022;-0.24622524548376812;-0.1745472462836158;-0.5978265573287529;-0.37964770781437734;-0.06616398458036506;0.0
2.005472624319293;-0.60822688180666;0.04024558830225588;-0.8583020735843457;1.921352312625323;2.70168508635555;0.0
0.47803276750541307;0.10177354494469659;0.16023659766026105;-0.3871495825593715;-0.37234555297989175;-0.39179328704341393;0.0
-0.4455575575452114;-0.08597017591839252;-0.12694282424045739;-0.9472443438998862;-0.9030943435838787;0.5850946203457327;0.0
-0.42932714263741956;-0.22135909946060917;1.4298770321502816;-1.586294794834789;-0.898602487473879;0.6393661707562408;0.0
-0.01869577379751474;0.19687816936998784;-0.0787358762828942;-0.954441269245239;-0.8354891903114033;0.4765515195247164;0.0
0.8678491437641014;-0.5008252244845611;0.017387293965672977;-0.5693208370768336;-0.33195294221446014;0.8293165971930193;0.0
0.5472499214005663;-0.5271555006336728;-0.2726361797094445;-0.5806854174715552;-0.4540338500064131;1.073538574040306;0.0
0.8940012513183442;0.06293118839212758;-0.21340004403954602;-0.3773867937328321;-0.29950539921471;0.9107239228087816;0.0
-0.04214955276028803;-0.6740863172761771;-0.1758361306308396;-0.13758483631477705;-0.08023160603516785;-0.5546079382749384;0.0
0.15794939983402673;-0.33288726795481777;-0.3257855913792797;-0.7708818862536087;-0.25907332025073165;-0.17470708540138133;0.0
0.13072484124260778;-0.21431289708253817;-0.19793738776748193;-0.4216872583950865;-0.3789563771028706;-0.011892434169856905;0.0
0.9472012823301774;-0.40498507253723776;-0.2363417876241379;-0.7990219898458658;-0.2971320951745375;0.9649954732192897;0.0
0.025310692092208157;0.021819826676949185;-0.21532406296259302;-0.8077197855494131;-0.7192561663562782;0.8021808219877653;0.0
1.3345414849478798;-2.267099990261995;-1.9829861227235677;-0.4413043046792374;1.4003926633481412;-1.4229527448430688;0.0
0.7941374410922004;-0.02665757389883639;-0.0017630932215035838;-0.5951461253839191;-0.384521788292831;1.073538574040306;0.0
0.32846565299005326;-0.12411845884588649;-0.07074700414367388;0.2343341798049086;-0.25220314842802194;-0.17470708540138133;0.0
0.6241567018401797;-0.5053131606445835;-0.3855678421513887;-0.43463188571862693;-0.3811903262996547;0.8564523723982734;0.0
-0.11268939919326067;-0.8752717122958116;-0.2258954780453342;-0.8695994439529928;-0.17795705899296843;-0.22897863581188949;0.0
3.165532786872826;1.1142712208908032;-0.06345483597008254;2.0392876122115307;0.8508697450432098;-0.22897863581188949;0.0
0.16894098278057984;-0.3960832022367725;-0.17837882764236968;1.3349902054641458;-0.1780179390025193;-0.8259656903274791;0.0
0.7829362565378266;-0.364839889834649;-0.10365178769240843;-0.6367965363907919;-0.4608442205715115;1.6705256285558956;0.0
-0.5980187832971673;-0.41359811313765765;-0.07290950918825556;-1.981957643199662;-0.855130429304927;0.04237911624065124;0.0
0.8108571918995039;-0.2104527515963937;-0.14913781200977572;-1.7474218858955228;-0.2268989569029898;1.2906247756823386;0.0
0.9760753558526423;-0.04574273832624853;-0.12581902739137732;-0.290626875586662;-0.2658368004273886;0.5308230699352245;0.0
0.29483940713518725;-0.5036923649567394;-0.19248331753573752;-0.6042610946751037;-0.5604771142066975;1.426303651708609;0.0
1.1345691477586441;-0.16920475428302717;-0.23335193703164522;-0.30937831731106336;-0.3092144056820532;1.3448963260928468;0.0
0.8947712610672537;-0.20537758725165164;-0.27691936009209284;-0.22783449416837706;-0.330692003333603;0.9107239228087816;0.0
0.6957985010837197;0.061076475678343144;0.6696106257028469;-0.766082446833329;-0.85907849180331;0.4765515195247164;0.0
0.07568960068394505;-0.40057633541498905;-0.19926526737993633;0.5162357699821569;-0.14068590899310654;-0.8802372407379873;0.0
-0.23199171558192466;-0.8296422263691109;-0.24939272275009733;-0.8937806634874819;-0.19266361608384594;-0.7445583647117169;0.0
1.054677953510717;-0.4177176198989272;-0.10865025190310773;-0.8313289993375724;-0.24459267037929353;0.720773496372003;0.0
0.5284653472258278;-0.33048556985017025;-0.2932192409927237;-0.8906451263762197;-0.44152055112627;1.3991678765033548;0.0
1.7839559439507402;-1.3016827902018102;-0.21552282047296104;1.4592848766430884;1.1284029294497715;-1.3144096440220523;0.0
0.6672902480293682;-0.22729841127007272;0.017387293965672977;-0.2604677367138478;-0.4281086899617893;1.073538574040306;0.0
1.0084352949845925;-0.11462620891778019;-0.45255635069151234;-0.4817358647101686;-0.25115813922901337;1.2092174500665764;0.0
0.8659637229360514;-0.13876383516429167;-0.10820039012414476;0.07110411406941501;-0.45882441993399836;0.9378596980140357;0.0
-0.3276555870261008;0.11470839642925101;-0.29268461602432644;-0.5397879170702853;-0.9799432582178419;0.5850946203457327;0.0
0.24572977132557478;-0.05596622995596165;-0.22282517140391178;0.06677496627548606;-0.26858000847412195;-0.06616398458036506;0.0
0.9005633450746783;0.25682168929831045;-0.24483568135280953;0.3386452344215611;-0.09633423975043347;0.39514419390895417;0.0
0.10589368735176612;-1.4602421490045032;-0.3354260801410185;-3.4712060167535;-0.48029162959367405;1.3720321012981007;0.0
0.197459642622941;-0.1643834407884821;-0.12390241495698932;-0.14947135415995197;-0.31923715368479955;-0.20184286060663542;0.0
-0.06492521727155427;-0.2056044706458135;-0.22233717564633462;-0.5012612244734176;-0.4005516189432548;0.04237911624065124;0.0
1.409229935040735;-1.6412824322684647;-0.24782623976977977;0.18953499054117456;1.0007541206911832;-1.6671747216903554;0.0
0.8315153501164511;-0.33303691410783764;-0.14913781200977572;0.16790996341160438;-0.3772316669105838;1.073538574040306;0.0
0.13676557790869767;-0.18707729766112033;-0.22697657193315912;-0.30713361590621163;-0.27030042587370845;-0.3103859614276517;0.0
1.017650847973643;1.1406613617101662;-0.14913781200977572;-0.7827268226792155;0.1969077007125519;0.4222799691142083;0.0
0.7818028423652581;-0.5857483470225648;-0.19030393457633252;-1.3348113850892118;-0.32710496854603477;0.9921312484245438;0.0
0.2702933490077922;-0.3164105045559844;0.005451053852048554;-1.1730790406466254;-0.4404272520579632;-0.798829915122225;0.0
0.0683980331136812;-0.31883067187697356;-0.17437320906256212;-0.8363667031969827;-0.36631908646634675;-0.17470708540138133;0.0
-0.14960013551789506;0.019069172020391677;0.020537028700404962;-0.936936548963684;-0.8704633332194899;0.25946531788268384;0.0
1.2690035894496063;-1.0145214044357687;-0.21736684848582707;1.393506050725464;0.757874984809623;-1.4500885200483227;0.0
-0.5231870346608829;0.6180746275978422;-0.2628528728031956;-0.027805411098855242;-0.9992714286336905;-0.2832501862223976;0.0
1.0300569752097806;0.011707767518241638;-0.14913781200977572;0.12940492798584827;-0.278027829218632;1.073538574040306;0.0
-0.01897554153259558;-0.17439658250680465;-0.40618674012885525;-1.438872647322116;-0.6900178147210507;0.9107239228087816;0.0
0.41522497224901717;-0.620304105250435;-0.06904285614658406;-0.6403223257940939;-0.491255684118816;1.2634890004770845;0.0
0.7753035061440056;0.511080192297497;-0.05088799948426124;-0.5885503685489295;-0.39804681012820564;1.6705256285558956;0.0
1.4005872355026918;0.1811821665781871;1.8200933442128238;0.3526192454421213;0.21944539134296803;0.4765515195247164;0.0
1.1005686516484374;-0.36369243438660354;0.0016842686214969963;-1.1690835496371002;-0.2724514001352873;0.8835881476035274;0.0
1.2683570439272647;-0.09734122729177087;-0.02209064064057628;-0.4639482196789543;-0.1978293248546871;0.9378596980140357;0.0
1.609660978213525;-2.177913346906148;-1.728152656169833;-0.7763048998815143;1.4212584873573597;-1.585767396074593;0.0
0.8099703048149176;-0.24599899186261;-0.34937520166775365;-1.0804302313608047;-0.2539015225581021;1.3720321012981007;0.0
1.0645941931451068;-0.3693701065818905;-0.14913781200977572;-0.876080812418485;-0.19997974806074162;0.9649954732192897;0.0
1.6307801054116369;-0.08368737474081839;-0.14913781200977572;-0.24527302910118376;0.5269669141738885;0.8835881476035274;0.0
0.10732533830687889;-0.3338301866015132;1.5373686529968584;-0.5649521267354172;-0.26696870797362154;-0.20184286060663542;0.0
0.1340782745358189;-0.37507260710591406;-0.17603100886894982;0.6070323958059031;-0.13442963739495867;-0.5003363878644302;0.0
0.9074874666709487;-0.06017330862391044;0.09486006677875371;0.6160437914556798;-0.4328277306134135;1.0192670236297978;0.0
0.16028681677852935;-0.4749299957408907;-0.008513080341577417;1.0116909452726779;-0.22774483503966178;-0.418929062248668;0.0
-0.21956662795733448;-0.1756251791987568;-0.21340004403954602;-0.8337815820248645;-0.8155426200915824;0.2051937674721757;0.0
0.8657346138680359;-0.26892591317873993;-0.08704172263269508;-1.1216186956152263;-0.32028005475629334;1.507710977324371;0.0
-0.057172159415764666;-0.8012777741908916;-0.22752861987587755;-0.9789912979677341;0.12643006373307505;-0.22897863581188949;0.0
0.6380782620873652;-0.3450769765069238;-0.2747412655225078;-0.73379821450861;-0.413015965135807;1.6162540781453874;0.0
1.4867877312912465;1.627835386841109;0.07281206568340531;1.0072732634789836;0.21996521610785;0.06951489144590531;0.0
-0.26864422380767133;-0.36760370871461623;-0.2149300971831112;-1.387792135516432;-0.8034894992559122;0.5308230699352245;0.0
0.9891059825763042;-0.0008864814320665161;1.6930461728436244;-0.5034551769412878;0.4537120672668992;-0.5003363878644302;0.0
-0.10401635988568178;-0.5007684537530683;-0.2551627895552953;-0.3528388606278559;-0.1688917175920891;-0.3103859614276517;0.0
0.5806526884887093;0.09001181965151726;-0.39476234332356275;0.34946913159336473;-0.378782851055419;-0.418929062248668;0.0
1.0805291875418244;-0.13022508873287805;-0.29402868722296444;-0.023997847116349513;-0.33749511890288436;1.3991678765033548;0.0
1.1211416270769943;-0.09174571051688243;-0.17160347036164647;0.07038192054320164;-0.18010218301742412;0.6936377211667489;0.0
-0.6411552964833013;-0.1947575782653255;-0.14913781200977572;-1.4734206201105253;-1.022476900671094;0.2866010930879379;0.0
1.3265661262762003;-0.0359667521821444;-0.08048499269846916;0.04154410165805144;-0.07305183195595369;0.44941574431946235;0.0
-0.10944745180309083;-0.401056405677448;-0.12407408432469542;-0.9155435271983913;-0.3481733673274911;0.06951489144590531;0.0
-0.11939017292757598;0.1273728367808232;-0.031049095031993268;-0.7916903263922943;-0.8777360706248407;0.39514419390895417;0.0
0.6349217265431378;0.3888036025118747;-0.37318721557302686;0.7249356942398203;-0.5193919240960433;-0.17470708540138133;0.0
1.9793212715667787;0.1800934662073538;0.040343969289430966;0.2945462468565194;0.6451880616130957;0.5579588451404787;0.0
0.5419743112905945;-0.6693108823437585;-0.36357192664879645;-0.5468086247578102;-0.4268190181088158;1.127810124450814;0.0
1.213267186494544;-0.17657826518481545;-0.06345483597008254;-0.21098884719501942;-0.3172332325049376;1.127810124450814;0.0
1.6933603577671632;-0.048827135136313406;-0.17174129648650402;-0.6610233730376748;0.6932637540837696;0.06951489144590531;0.0
0.987704357455955;0.0032263209985531074;-0.10629632398992914;-0.059098036160343294;-0.2872392740849743;0.6665019459614949;0.0
-0.3440968235956209;-0.9159968391917579;-0.3445209619184695;-0.7473338052602996;-0.10188365363165315;-0.7716941399169709;0.0
0.15817180941158507;-0.05309532489564905;-0.14913781200977572;1.4004571269467494;-0.2349012874794812;-1.0973234423800198;0.0
2.4349362992564227;-1.809882600465587;-0.04865504919959084;-2.9964945190080323;3.3001334069663963;1.0192670236297978;0.0
-0.39038368981050925;-0.07153020562719785;-0.2177906313210827;-1.0474520688343725;-0.971965536030706;0.6936377211667489;0.0
1.064852714181229;0.06729415528585962;-0.08633608525340966;0.20716740849589507;-0.3483911715674886;1.046402798835052;0.0
0.15511449525026713;-0.40322646011433266;-0.019406545470804056;-0.7762391489742247;-0.23013021800037262;-0.06616398458036506;0.0
1.6666476182499579;-0.3188661623389817;-0.3538249214379314;-0.44585343855493703;0.5203463887298272;1.5619825277348793;0.0
0.5617307003035312;-0.5249744543923132;-0.18984906029382867;-0.47046507170934443;-0.4685097838179554;1.0192670236297978;0.0
-0.1718441102695719;0.17778190477528477;0.2989609951167265;-0.6140640780571712;-0.8958855090097104;0.1780579922669216;0.0
0.005970439543605747;0.25272965366245104;-0.19519241163111056;-0.7048340785839594;-0.8282488470604522;0.6393661707562408;0.0
1.4352846287672347;-0.18501216347883098;-0.0787358762828942;-0.7664871611387795;0.46464364997385244;0.6936377211667489;0.0
0.17684263002256972;-0.015039365659607704;-1.322372305156634;-0.7109133077363758;-0.6241205767692549;0.5850946203457327;0.0
-0.5676203899232498;-0.22317732527576534;-0.23900044541725873;-1.718150145623388;-0.8940231610895387;0.6665019459614949;0.0
0.8915646022564678;-0.061156585252297266;2.083812472661012;-0.2104876338969063;0.24520693492749965;0.44941574431946235;0.0
0.10366099013409709;-0.04292315329469766;-0.43810784884952453;-0.07910347189792381;-0.44787115312530995;-0.03902820937511098;0.0
0.04961829151931354;0.3130142801684179;0.10900261898878984;-0.34989002898363913;-0.8497046797588546;0.8021808219877653;0.0
1.041138138018306;0.20546179998398176;-0.17230993760541596;0.770373126755917;-0.29692837115578186;0.8021808219877653;0.0
1.8292872426573286;-0.040426467076370244;-0.03471644649093119;-0.0226855605121916;0.3664233678939665;1.6976614037611497;0.0
-0.4922927879868423;-0.3766387112754764;-0.031801252464973194;-1.9448552287468013;-0.7233498950977454;0.5308230699352245;0.0
0.4190257117434911;-0.4676774877880403;0.18019116852267533;-0.98290602181363;-0.4311985097872477;1.127810124450814;0.0
1.509907782510291;-1.4943878995065125;-0.013931647983838093;0.09568462469179913;1.0825432895506695;-1.884260923332388;0.0
-0.2952502094140904;-0.14608197245385163;-0.07918145815458294;-1.363091146434733;-0.8020075730192393;0.2866010930879379;0.0
1.4259702851227638;-1.5803755360550438;-0.14913781200977572;-0.2431596714130204;0.8321210953061741;-1.4500885200483227;0.0
1.6041451510379046;-0.05533136497246954;-0.026325546352882;0.15784242274314786;0.49352167757236903;0.04237911624065124;0.0
-0.03907960198267535;-0.41540521605427905;-0.20215030078253593;-0.9825893804210981;-0.4449181648184029;-0.20184286060663542;0.0
1.7786754877253017;-1.024889597967636;-0.18263206627983736;0.2182680900293136;1.06188572536983;-1.3958169696378147;0.0
1.1692615128245414;0.13429263376790743;1.0242277834382496;-0.15687763090576132;0.20805765993227224;1.1820816748613223;0.0
0.20088168802977596;-0.006580630346150747;-0.02209064064057628;-0.016497175582738718;-0.361403030105174;0.1780579922669216;0.0
-0.2565611401479507;0.030722718178898455;-0.2368608589075568;-0.9433846516259746;-0.9060555562526875;0.8293165971930193;0.0
-0.03544376025006045;0.30475857860288236;-0.009607337422168637;-0.13740580479126052;-0.8817778717728749;0.5308230699352245;0.0
0.2071533947231823;-0.3308338237781677;-0.20670606153644447;-0.9320734384596431;-0.5488732867220045;0.8293165971930193;0.0
0.2297689603812373;-0.6610040523134092;-0.23549018629977886;0.5008373475088054;-0.15531097190201335;-0.7445583647117169;0.0
0.015797788391286417;0.018400418184867942;-0.17275555540533205;-0.8112179375610502;-0.6928875834397819;0.6393661707562408;0.0
-0.3460748976963914;0.10042560164353857;-0.0552685643739337;-0.539437411388976;-0.9957601523352709;0.3680084187037001;0.0
-0.11058179995535301;0.11986963387900919;-0.19379681770319096;-1.1758986912233675;-0.833126679753579;0.6665019459614949;0.0
0.922325002250059;-2.610388715680422;-0.18203395459644348;-3.130136327719986;0.9078369576482084;-1.3144096440220523;0.0
-0.25929119211486756;0.03157956168471565;0.6356979685194835;-1.4077094038326659;-0.7792256978070565;0.5036872947299704;0.0
-0.858614542293061;0.40580372483727883;-0.36729117863715255;1.9434881156448582;-1.0740861225784937;0.04237911624065124;1.0
-0.5582090905711811;0.2402829431819077;-0.09968320838955029;1.7957809170267605;-0.8817979496129918;-0.1204355349908732;1.0
-1.0157449858642207;-0.3811853150602858;-0.12407408432469542;-0.10876924378061806;-1.0742046277904678;4.221288497849779;1.0
0.8980121463772527;0.019676359348038058;-0.0191012954318883;-0.20989124174033505;-0.11451627559521696;1.127810124450814;1.0
-0.9222034008749251;-0.0454024183205515;-1.3249999300013078;-1.028149384136122;-0.7463865008826255;0.06951489144590531;1.0
-1.4227609191971768;-0.2874834166009189;0.009899654308503252;-0.1392735953425529;-1.089108646448118;-0.2832501862223976;1.0
-1.5771039813148957;-0.7297596037342866;-2.4164411779831916;-0.9485735149256969;-1.2609589970713933;4.1941527226445245;1.0
-0.976461620604799;-0.5598124189618316;-2.3558700788262503;-0.536894115105413;-0.8933251564445714;-0.17470708540138133;1.0
-1.17854741359635;-0.7006584970725314;-2.5227210232631947;-0.5663570279024601;-0.9248266763470422;0.15092221706166753;1.0
-1.2819407668621745;-0.4399917981539998;-2.3196869180303983;-0.6622316078810224;-1.1489231094761154;3.922794970591984;1.0
-0.9339611454214027;-0.2456001395776234;-0.14913781200977572;0.6815558596044546;-0.9703227484292787;-0.17470708540138133;1.0
-0.844823801593087;-0.5303710906630192;-0.14913781200977572;-0.03100582324250484;-0.8781709955763549;-0.1204355349908732;1.0
-1.6057262848200045;0.3119569331006591;-2.368014880600706;1.1799927257343186;-1.2889757586364692;-0.20184286060663542;1.0
0.973479744621243;-0.8205854334005762;0.31403987561050756;-3.8284967062132425;0.33030335196941535;1.1820816748613223;1.0
2.0095329755200053;-0.8005446568594259;-0.2161263205498994;0.3644491106922716;1.023913528795313;-1.504360070458831;1.0
-0.458864157839695;0.5371074228278443;0.3024943907284771;-0.4032369763619275;-0.8607048796403879;0.1780579922669216;1.0
-0.34586262018373204;0.08228337675345845;0.7792068732706787;1.2403519830236072;-0.767766190038808;-0.6360152638907006;1.0
-1.1091868817755726;0.12873831239379882;-2.437624102471989;0.9492952339726896;-1.0640266755318706;0.015243341035397168;1.0
-1.0063021521259565;-0.3884003748128578;-0.3524132862004957;0.12260413483891945;-0.9104956111756916;0.06951489144590531;1.0
-0.5876039386746457;0.22584102051946456;-0.17337707496837296;1.7394625871962657;-0.9462512523011963;0.015243341035397168;1.0
-0.8368550256073952;-0.29186949575288634;-2.693465692729431;0.7512689751788137;-0.9055010469707031;0.06951489144590531;1.0
-0.5394393131823476;-0.05524048092570333;0.0012445541007060851;1.4347044612478397;-0.8618238189355448;0.04237911624065124;1.0
1.062419010068165;1.4199203958906195;0.30760201894561284;2.5591507794745483;-0.2779528964517193;-1.0159161167642576;1.0
-1.2549609210432113;-0.30150089001865665;-2.2992222362579366;-0.24507731927896767;-1.1688019241363186;4.16701694743927;1.0
-1.2771526842729402;-0.5398686221077561;-2.4195051014507225;-0.43079568834718024;-0.967120253215861;0.015243341035397168;1.0
-0.8801645776751608;-0.17143431395139555;-0.04461673485497273;1.1542575265462387;-0.9603722334633384;-0.1204355349908732;1.0
-1.2833246328675862;-0.16890899488093414;-2.465026250111193;0.5206119474021301;-1.1093279825317008;-0.14757131019612726;1.0
-1.611101129842467;0.3765945677300647;-0.49028299439003487;-0.618655339837373;-1.245053194351085;-0.5003363878644302;1.0
-0.7586806716655694;0.04730972124885417;-0.12355192333125636;0.9651399221251828;-0.9038834316862592;-0.22897863581188949;1.0
-0.5890108828472311;0.058026404083227505;-0.4727647282678054;1.9084433492352155;-0.8908581722208795;-0.03902820937511098;1.0
-1.0705402719968127;-0.266336603375097;-0.07593844837321559;0.23847034152572213;-0.9851898073227692;0.06951489144590531;1.0
-0.9382336598751626;-0.32275422529364206;-0.12390241495698932;0.47432977353577965;-0.9676227870447808;0.12378644185641346;1.0
-1.0894524601295357;-0.18858109091472175;-0.17353759988862882;0.5675947817223727;-0.9784449830030411;0.15092221706166753;1.0
-0.9180086333328998;-0.24867999392364698;-0.8889413208375826;0.22056954844432738;-0.9309636270458327;-0.17470708540138133;1.0
-1.3305573573525549;-0.45979180633377925;-2.321189452553179;-0.3026564368250886;-0.9891558536821365;0.12378644185641346;1.0
-1.4417549111594314;-0.3419220589891186;-0.4499025442307385;-0.46488926371900646;-1.0932019858087014;0.06951489144590531;1.0
-1.5034746696516028;-0.6755677992595666;-2.3909490105086224;-1.1498526430951248;-1.0150217781475086;0.015243341035397168;1.0
-0.7486027306520909;-0.27762248283789354;0.02996340873986058;0.4488303346961939;-0.9165951527299412;-0.14757131019612726;1.0
-0.7321948396472753;-0.13762259738311478;-2.293148551443677;0.5949551616051981;-0.9538520248994915;0.2051937674721757;1.0
-1.299492928944637;-0.09166647856588972;-0.4067859217794823;0.62187756658962;-1.1047091293452702;-0.06616398458036506;1.0
-1.137726614871862;-0.6655820550700187;0.9803764560755209;-0.8554987428665624;-0.9480311507097322;0.06951489144590531;1.0
-1.116810823553705;-0.23584056303074857;-2.465547377122467;0.18290793754877696;-1.0729442513819825;3.2172648152553776;1.0
-0.6762145610203372;0.10145865419397049;-0.1745472462836158;1.7280353385259988;-0.939031478455383;-0.22897863581188949;1.0
-0.903129237904001;-0.6427743339080597;-0.24673696352518773;-0.42526246685934255;-1.0716111687854144;4.302695823465541;1.0
-1.0759281712983377;-0.5158892260443624;-0.07343162085141651;-0.2812283487079044;-0.9445730114873483;0.06951489144590531;1.0
-1.061377260554172;-0.03562061944051841;-2.432270091110001;1.4280171499260974;-1.0037603690452443;-0.011892434169856905;1.0
-0.5118164606079153;0.295713852093224;-0.39476234332356275;0.3599550592481151;-0.8153954590719765;0.25946531788268384;1.0
-0.8741499640226537;0.6888508825840448;2.8944705107914936;0.25323580092927844;-1.1738068671969626;0.015243341035397168;1.0
-1.4914679279799508;0.17964177142172172;-0.4106090872792904;0.7093644010352372;-1.2328656573630017;-0.09329975978561912;1.0
-1.4242908630511995;0.07414145516309326;-0.27113675140404003;0.461727123543504;-1.2791109859612904;3.9770665210024916;1.0
-0.6572345331874256;0.2304174873024896;-0.12473802413092262;1.7082421641425727;-0.9092549523134007;0.1780579922669216;1.0
-0.8333761323828139;-0.361906330682928;-0.2727743210603389;0.3345702988515365;-0.8815672665642498;-0.09329975978561912;1.0
-0.6880771897749444;-0.5044615444744046;2.7457227356169964;0.05726650937162556;-0.780064885823459;0.1780579922669216;1.0
-1.208631540889104;-0.32416743737552217;-0.25077554910513594;-0.1681113970547162;-1.0079998216220454;-0.3103859614276517;1.0
-0.8978208320988286;-0.3189194552631253;-0.2679883916777369;0.4307615367686053;-0.937869907090109;-0.22897863581188949;1.0
-1.299290533922197;0.20194354393867694;-1.034528564419937;-0.7665503722104319;-0.8603299340850736;0.6122303955509868;1.0
-1.5373036054623066;0.40026615438600666;-0.4727647282678054;1.033839330823037;-1.3270565532970022;4.031338071413;1.0
-1.38067642705313;-0.0774603175036609;-2.4253442016715687;0.5538563031715039;-1.14095967990723;-0.3103859614276517;1.0
-1.3237272385830323;-0.4882568910829635;-0.2770672554023729;-0.5549344822025118;-1.016387812634978;0.015243341035397168;1.0
-0.51250414754159;0.6872165521440281;-0.32159758931520027;0.2528971862193654;-0.7542640038439705;-2.0199397993586583;1.0
-0.6940294916630041;0.8551825017730257;-2.286766398207589;-0.046803737120336274;-0.8769919211639094;-0.17470708540138133;1.0
-1.1937520945167823;-0.7264305937370659;-0.09831894346209562;-0.670613621616094;-0.893802669323479;-0.09329975978561912;1.0
-0.9195381358457643;-0.4167948824603387;-0.04750007491441551;0.031410178486275614;-1.0414808376215936;3.4343510168974105;1.0
-0.9436195197611692;-0.2849663302437467;-0.17370026514115497;0.4247139861153746;-0.9312668728885599;0.015243341035397168;1.0
-1.1316459934343488;-0.6229190589910887;-0.09650398387110734;-0.17144342600562631;-1.0027472120550178;-0.1204355349908732;1.0
-1.5066600164762152;-0.11428536712065324;-0.12424343383608097;0.3630278480728038;-1.1577697590987648;-0.17470708540138133;1.0
-1.2420954930639583;-0.7983276064998892;-0.22484400316813452;-0.6140994797234145;-0.9288410052427296;0.04237911624065124;1.0
-0.9891226272940437;-0.5524241034078292;-0.1231915587019814;-0.14621643365893883;-0.8698021007275344;0.06951489144590531;1.0
-0.936211251337539;-0.5475331160482857;-0.19926526737993633;-0.1314356719196419;-0.8715047294594156;0.015243341035397168;1.0
-1.0310857936110813;-0.3651604947691423;-0.9230535255747587;0.1259494341313541;-0.9580699074281336;0.06951489144590531;1.0
-1.1504092200792275;-0.2834666907940407;-0.19698674668129262;0.024200001784226113;-1.0254202510285801;-0.011892434169856905;1.0
-0.1060515323258531;0.02446663517097321;-0.008109372977936563;-0.32605339555037716;-0.5079746837249736;1.4805752021191172;1.0
-1.1567819298346507;-0.18468031952153013;-0.24546115762302548;0.32070498520647206;-1.0645945865153275;-0.20184286060663542;1.0
-0.7807020265519847;-0.4699429398899162;-0.34433611504059974;0.24021539257917324;-0.8729755542713389;0.25946531788268384;1.0
-0.9970701762805441;-0.04864706536143558;-0.020313757124922432;1.2116355486201145;-1.035384734711806;-0.011892434169856905;1.0
-0.8781445638705361;-0.5650637653508523;-0.09968320838955029;-0.03389615833790282;-0.8581837360719491;0.12378644185641346;1.0
-0.8915713787174352;-0.2170786783045266;-0.14913781200977572;0.45142798388534716;-0.9271672533741557;0.09665066665115939;1.0
-1.1717252073698317;0.5224464064659976;-0.01848646556627239;-0.07409286900132578;-1.1831985078799256;-0.5546079382749384;1.0
-0.7577696857180903;-0.2290574794753653;-0.22382094653086;0.51204667719558;-0.8839221720513871;-0.011892434169856905;1.0
-0.6098859026348822;-0.053326315127733386;0.08113518609689929;1.160750473466406;-0.9062760822296966;-0.011892434169856905;1.0
-1.0331732029819594;-0.42619589259404544;-0.1989265683571652;0.1639397486167209;-0.953204731276292;-0.03902820937511098;1.0
-0.6222565803024888;0.79822899424675;-0.1927397998169566;0.02618570903255785;-0.7446161163584464;-2.4812479778479775;1.0
0.43258976561588514;0.28480769634015934;-0.1758361306308396;1.3402892502874535;-0.526299800863661;-0.6902868143012088;1.0
-1.2412731889149549;-0.7274350025242354;-0.09831894346209562;-0.5336054412925877;-1.0588185466400328;2.593141985534534;1.0
-1.441890077432433;-0.35791954498708123;-0.025501302959211727;-0.07566010206468876;-0.96851172505164;-0.011892434169856905;1.0
-0.7940424254075741;-0.6894575851867676;0.040498774666309724;-0.4671873500105549;-0.7867596950216612;-0.011892434169856905;1.0
1.0807754169116044;0.10286712041457856;0.7325912747576638;-0.18228749595261112;0.5408171534303129;-1.4500885200483227;1.0
-0.9377233602998148;-0.05853658519298681;-0.44000896751294466;0.514497552452648;-0.9187388274543314;-0.20184286060663542;1.0
-0.9444201942649192;2.457936481099962;-0.14913781200977572;0.4484341904653975;-0.2931741539063526;-1.6671747216903554;1.0
0.5141741151849376;-1.484734617031005;0.043648884079533934;-1.9280450999918477;-0.3135494357168888;1.426303651708609;1.0
-0.7277007925922524;-0.3208775243340601;-0.12424343383608097;0.9507538501137532;-0.9002076490372025;0.09665066665115939;1.0
-1.3566570760759096;-0.29724366895869575;-0.42113813192101646;-0.11168262012584003;-1.134950585376057;-0.20184286060663542;1.0
-0.7545634310553778;-0.6128026191545133;-0.09901035663961512;-0.239030560444814;-0.8327268894619434;-0.17470708540138133;1.0
-1.0912835077297856;-0.48540728717884823;-0.09968320838955029;-0.40932024169547176;-0.8677309668795536;0.06951489144590531;1.0
-0.4864693383872856;-0.29316997791580823;-0.21736684848582707;-1.6567557611686567;-0.9094253728511384;0.5036872947299704;1.0
-1.1371758163223435;-0.4203419163132673;-0.14913781200977572;-0.3476090349097963;-0.9444161788012612;0.09665066665115939;1.0
-0.5912008384740187;0.6733271831684039;-0.12505697560646256;-0.07245289676050884;-0.9423551739131928;-1.4229527448430688;1.0
-0.8783391413775005;0.10382614505380275;-0.19859241563000157;1.0385700816141472;-0.9407444874448126;-0.14757131019612726;1.0
-0.9609090811386954;-0.24066692469804643;-0.24939272275009733;0.4789447183002232;-1.0049788133616133;-0.14757131019612726;1.0
-0.14274854831932288;0.1618076686078282;-0.25219705591765845;2.507093489675165;-0.8329388117432303;-0.17470708540138133;1.0
-1.2033257881404;-0.37506016825791966;-0.1976163379269702;-0.3844509110484921;-0.9425399433869167;0.2051937674721757;1.0
-1.0394399936044492;-0.18807508255152006;-2.3947552289023113;0.18312185072886591;-1.1377045423169707;3.3800794664869023;1.0
-1.1276297402756341;-0.34997776196034014;-0.22233717564633462;0.22530285323245508;-0.9820068269530398;0.09665066665115939;1.0
-1.164768722445311;-0.4874797164532301;-0.31993632716174625;-0.12246561608390161;-0.9537754716211393;0.23232954267742975;1.0
-0.6579901544860863;0.24568321406062207;-1.0836764028660628;2.085606815819351;-0.9646479206717482;0.12378644185641346;1.0
-1.1722958936305716;-0.3938314964301009;-0.31552862354492156;-2.038712545534141;-0.7451669425131571;0.5850946203457327;1.0
-0.7022360170101688;-0.13244340511506436;-2.293148551443677;1.0474501141660826;-0.8868039258039832;0.09665066665115939;1.0
-0.9718263321449022;-0.2255111380744296;-0.17386511381988845;0.2772127953264557;-0.9968376463711784;-0.20184286060663542;1.0
0.709350082112984;0.16193960863754042;-1.2691856748006431;0.46209972203848754;0.16755945233226716;-1.911396698537642;1.0
-0.7962464963459339;-0.41420080146059635;-0.020313757124922432;0.05748663956455185;-0.7283554116146437;-0.03902820937511098;1.0
-0.5911402357676524;-0.2282657594152093;-0.07445467748869229;1.1778999949894566;-0.8402110146664336;-0.03902820937511098;1.0
-0.7100290983656454;-0.4245530777856246;-0.02120836861717813;0.2235896048013963;-0.8662926762031631;-0.1204355349908732;1.0
-0.9287954599705542;-0.561458213636235;-0.14913781200977572;-0.16006620012687267;-0.7564870664873883;-0.011892434169856905;1.0
0.2386900982791666;-0.037598363095227516;-0.1764294266001965;-1.8742320274352546;-0.2165377117081024;-1.531495845664085;1.0
-0.38264118670376435;0.35643890755087;0.30086132932846016;1.3101126316518925;-0.9110796377648428;0.6665019459614949;1.0
-0.3271310368066592;-0.0019398779035382585;-0.07445467748869229;1.7380788538805356;-0.8317005259156294;-0.06616398458036506;1.0
-1.0699275687498218;-0.6721255963480901;-0.19793738776748193;-0.5983750398519707;-0.9002562645750758;0.04237911624065124;1.0
-0.6822649401571227;-0.07203301908871178;0.2900583698095777;-1.540395966044042;-0.7277106520255386;0.313736868293192;1.0
-1.048865380178754;-0.6994798698923297;-0.2258954780453342;-0.2725251599896712;-0.9006688126459794;-0.03902820937511098;1.0
-0.23745810003452247;0.2882823632511855;-1.556233117023428;0.006097983869705255;-0.7469893550804731;-0.7716941399169709;1.0
-1.3989622212891277;0.25717982230270264;1.7080232784115386;-0.361027005531665;-1.2111284965388212;-1.0701876671747657;1.0
0.19315415132551866;0.6234621647072803;-0.5000299996008996;-0.3181431449925663;-0.15169093888866075;-2.3455691018217073;1.0
1.026030137811288;-0.5877966502107778;0.33885794556728394;-3.156621197505568;0.30271519997599017;0.9378596980140357;1.0
-0.9196643330964984;-0.3254635462511403;-0.6219106930783473;-2.2273567448309377;-0.6543140502004571;-1.531495845664085;1.0
-0.3869821719863706;0.7436190963128042;-0.10308321238844088;0.0896121061640128;-0.9542372060905628;-0.03902820937511098;1.0
0.5870936337195313;0.9105463694412794;0.011052099716606789;0.9305099398339493;-0.3330764297070847;-1.4500885200483227;1.0
-1.5103423815027806;-0.1189757556953331;-0.3868389713456981;0.037029897821393494;-1.019904432548357;-0.1204355349908732;1.0
-0.33549065260572053;-0.07689049368501813;1.402175017340455;0.36098961443296135;-0.7113551848317701;-0.6631510390959546;1.0
-1.0028816712212325;-0.44085117998354006;-0.09866701790420292;0.22062478809755687;-0.9503380362596948;0.04237911624065124;1.0
0.6734915159194688;0.43508028521353675;-1.91936148495484;0.051649247749525944;0.2222780776267154;-2.1827544505901826;1.0
-0.18297576482798714;1.3172738846726448;-0.1957753812465705;1.6464714738689428;-0.9683310328676887;-0.7445583647117169;1.0
-1.11869607896687;-0.3123544179402797;-0.2797891584532799;-0.07751564120507964;-0.8927049396177829;0.09665066665115939;1.0
-0.47491356746403424;-0.4091046036983338;-0.4684497027176988;0.762042034519908;-0.7557704975712334;-0.1204355349908732;1.0
-0.9883148568317258;-0.6179107130808481;-0.20030958936681442;-0.38884504794462094;-0.8729549624472555;0.04237911624065124;1.0
-0.965213310318674;-0.4559489653665164;-0.39153044159574896;0.3017532885054647;-0.9239958733253825;0.09665066665115939;1.0
-0.39753133167685856;0.05877588608864459;-0.19826271827253256;1.5889886928287649;-0.8442111362558368;0.015243341035397168;1.0
-0.7785043226427143;0.18709305151671643;-0.1745472462836158;1.6455766389029307;-0.9845552703822916;-0.17470708540138133;1.0
-0.48630644612139823;-0.04641909380805892;-0.09968320838955029;1.3538141249022697;-0.8522263089737245;0.04237911624065124;1.0
-1.4520437910983977;-0.51445515657194;-2.438911256098657;-0.6424274084972524;-1.0898871133739862;0.04237911624065124;1.0
0.5395573355710334;-0.028507807936286874;0.7177722985094716;-0.8600519691211097;-0.4449252214121183;1.7790687293769119;1.0
-0.5551591014328862;0.3322516719765384;-0.12372837773593567;1.9286227479993152;-0.9135474976029395;0.015243341035397168;1.0
-1.842709771544128;1.0970647441759744;0.39003798843512155;0.4149278522266951;-1.3104392953270587;-1.1787307679957821;1.0
-0.6500692460958907;0.17628816736524916;2.5351874230623217;1.7525656529043825;-0.9234401353318649;-0.14757131019612726;1.0
-1.0284705732699637;-0.47069559424650337;-0.046794257295698305;-0.23130619552807627;-0.9330335801500054;0.2051937674721757;1.0
-0.8801889760122351;-0.19118720712446519;0.004377520061341225;0.5549488167654674;-0.9263538965415228;-0.03902820937511098;1.0
-0.8677557594965116;0.27130879734697894;-0.3630688554121066;1.5730066480248415;-1.0157914862758504;-0.06616398458036506;1.0
-0.5360222614740107;0.2506449671227614;-0.25077554910513594;2.0271759539071157;-0.9364222296673698;0.015243341035397168;1.0
-0.9203835594374289;-0.7238229489490231;-2.40298302252874;-0.7698565065139054;-0.8723246748339931;0.12378644185641346;1.0
-0.8266130345337009;-0.3292091211274603;-2.385420858299476;0.5303444108109131;-0.9237542215244656;-0.3103859614276517;1.0
0.10534013898922497;0.4366645666367854;-1.4531556889284747;1.810407385089081;-0.6556351417728554;-0.22897863581188949;1.0
-0.5310518256753413;1.6476670757831324;-0.7993203948992113;1.6807398172946393;-1.1608629996969362;-0.8531014655327331;1.0
-1.0764536012867378;-0.00904833461405179;-0.662716377484057;0.6218909250286427;-0.9811964064250528;-0.25611441101714355;1.0
-0.9479998124231402;-0.38703732028975135;-2.379946911476085;0.4836320977139798;-0.9211808690205164;-0.17470708540138133;1.0
-0.4011831328912232;-0.2921896404649472;0.9136606407902623;0.645125618430086;-0.7285310990990084;-0.1204355349908732;1.0
0.11437708211679232;0.11989200486999167;-0.27766227606931465;-0.6882601572971562;-0.13268854595328905;-2.3727048770269614;1.0
-1.0887163929095711;-0.27101211628949606;-0.10001290574701807;-0.253824305483354;-0.9650078197712151;0.04237911624065124;1.0
-0.5919588525263813;-0.07677157678780742;-0.8338433639021897;1.2472467696523113;-0.853856556536188;-0.06616398458036506;1.0
0.4129945024758266;0.26312522827203294;-2.2352639683734434;0.47706722942997476;-0.10042503307681205;-1.96566824894815;1.0
-0.7938830799540643;0.223208797573389;-0.19926526737993633;1.651745736957822;-0.9515713071986981;-0.011892434169856905;1.0
-0.8379422770408642;-0.8443376330351734;-2.3979073630024823;-0.8787216669952871;-0.7605959259397126;-0.1204355349908732;1.0
-0.9605008737795503;-0.4919326332713864;-0.22382094653086;0.20517914950842756;-0.9732364742759526;-0.06616398458036506;1.0
0.24339655656223946;0.8196418582743767;0.9035387507635961;0.7177309916724222;-0.6403733413427734;0.06951489144590531;1.0
-0.9470521119820423;-0.36796045607037337;-2.0761592172182666;0.13226912459614;-0.8864823937069473;-0.1204355349908732;1.0
-0.9664077760003283;-0.5074375842750796;-0.07495590657943717;-0.0054232079083292315;-0.9186091118295835;0.06951489144590531;1.0
-0.7210679315408506;-0.16333170750111406;-0.14913781200977572;0.36892123364458546;-0.8905335089032453;0.1780579922669216;1.0
-1.5577545535301682;-0.43010372905688055;-0.19793738776748193;0.21460547469600827;-0.9761929611632253;0.04237911624065124;1.0
-0.6554756216638904;-0.1170046893709705;-0.19859241563000157;1.034147157119963;-0.9087291829896693;0.15092221706166753;1.0
-0.3934604145556116;0.37784202007848083;-0.35102098843206614;2.717957394515463;-0.9287906825295582;-0.09329975978561912;1.0
-0.44117820176311284;0.15638900821515986;-0.14913781200977572;1.861460800337341;-0.9056008243510099;-0.011892434169856905;1.0
-1.490971221023304;-0.40395029079119515;-0.07184337907886358;-0.4927950683588951;-1.1188673056700442;-0.17470708540138133;1.0
-0.7748383017837246;0.257817287180309;-0.046794257295698305;2.018679043852004;-0.9315200167886917;-0.03902820937511098;1.0
-1.3217606178817536;-0.37589796288920996;-0.17508406531757006;-0.3322747517850139;-1.0400929621040542;-0.3103859614276517;1.0
-0.6826189311792177;0.14560724760214083;-0.34053355069584335;1.9382990190129648;-0.9488349259128936;0.1780579922669216;1.0
-1.1363911206349064;-0.47372681868895916;-0.3430519156785545;-0.3559089255511178;-0.9621774633567157;-0.011892434169856905;1.0
-0.6575882972515797;-0.20478182995017097;-2.373476985210424;1.0098052313727295;-0.8569728224227808;-0.2832501862223976;1.0
-0.7774243853761843;-0.3617005067818869;-0.12407408432469542;0.16515580138077354;-0.882853302211481;-0.1204355349908732;1.0
1.2057713545485853;-0.9785821225850021;-0.20331969391722887;-0.5079116164292004;0.6828715663262316;0.2051937674721757;1.0
-0.5383082440790854;-0.4337699697336769;0.016080482595910044;0.09223843601046544;-0.6101853415693494;1.6705256285558956;1.0
-1.1825789706341892;-0.3836219635363663;-2.365591366345265;0.2244051803171967;-0.9495726734868472;0.15092221706166753;1.0
0.27386660713251043;0.7679236880341704;-0.14913781200977572;0.05870112595177501;-0.2959760661589835;-1.7214462721008634;1.0
-0.4290167420693049;0.04811633102689807;-0.025501302959211727;1.58058133873899;-0.8284483088202048;0.06951489144590531;1.0
-1.4676421044271475;0.1695449592029487;0.46492351627469125;-0.5049403399257754;-1.3365938830653294;0.5036872947299704;1.0
-1.3369509019650452;0.37411777483121966;-0.8487013505616998;-0.13877584736352175;-1.0930617518609556;-2.616926853874248;1.0
-1.2152382537410171;-0.1253704789907413;-2.451867793076526;0.8202542835579804;-1.0732526407645104;-0.03902820937511098;1.0
-1.1391391486512659;-0.271627504904976;0.025122835206086713;-0.24541685092852789;-0.9519835906037862;0.2051937674721757;1.0
-1.0959890776092298;0.09893038317643801;-0.09831894346209562;0.7630525027007988;-1.158198896462121;0.04237911624065124;1.0
-1.1234002551162419;-0.19636698053345816;0.009899654308503252;0.28792369731148526;-1.0711374042543444;-0.14757131019612726;1.0
-1.5316239999641066;-0.40144025712401;-0.25007940022092096;0.26589067147040907;-1.0678716040404241;0.12378644185641346;1.0
-1.3634864591545837;0.3829891368179863;0.829522429943593;-0.2766626201741653;-1.2341412069796487;-0.5817437134801924;1.0
-0.3156198354417949;-0.03215720930343637;-0.19434478096323354;-1.209576573561177;-0.9322989024043029;-0.03902820937511098;1.0
-1.0442068165521057;0.006088754628209768;2.732564278582329;1.040407463357041;-0.8084502277211953;0.04237911624065124;1.0
-0.6575746927468457;1.0777313260422297;-0.08174083695416347;0.9086392374647857;-1.1102436349409088;0.2866010930879379;1.0
-1.1489077411665238;-0.5971599103941718;-0.4499025442307385;-0.31879024760185626;-0.9436888807596333;0.06951489144590531;1.0
-0.8985280932921619;0.1187617017681879;-0.2473876245352902;1.429109996921221;-1.0236325113959368;0.12378644185641346;1.0
-1.2917996131421887;-0.5104623994848715;-0.14913781200977572;-0.4930970511849987;-1.059894354812544;-0.1204355349908732;1.0
-1.0002560713418003;-0.09680684475173222;-0.3778227204743358;0.6706874789415723;-0.9639339606229091;0.09665066665115939;1.0
-1.0443000475541928;0.03980700851961139;-0.25077554910513594;1.4708975273014355;-1.0567653151235983;-0.1204355349908732;1.0
-0.6567599137626794;-0.10943478599979364;-0.07343162085141651;1.055093178302506;-0.8882445951909193;-0.09329975978561912;1.0
-0.8754734138392808;-0.05274683226293312;-2.395703647196849;0.8610989447448434;-0.9278210840174728;-0.22897863581188949;1.0
-0.9606869928320187;-0.5700318052352616;-0.09934905566238622;0.0759791927016243;-0.9296069394854171;0.04237911624065124;1.0
-1.0719173780151503;-0.44506992516639365;-2.385314903450319;-0.26123869346571293;-0.9485399103131711;-0.25611441101714355;1.0
-0.1909797322910942;-0.6883229709258613;1.1089390556949856;1.12936730099173;-0.077866041841489;-2.291297551411199;1.0
-1.2208340725206972;0.22865939981125596;0.028728227907104643;1.3779298228508556;-1.134111922714209;0.23232954267742975;1.0
-0.7699785941646583;0.9181717653150343;-0.23101265578103847;1.0529954616107893;-1.3152052592257073;0.5579588451404787;1.0
-0.7482248239966434;-0.1913839135530244;-2.505726394065676;0.9505966156742742;-0.8186575386554;-0.7445583647117169;1.0
-0.9036044012438246;-0.05478583363914441;-0.42297597192041675;1.1788549951682765;-0.9893147801169871;0.09665066665115939;1.0
-0.31583228571940153;0.3006878036333755;-0.33006659623644874;-0.5695692469901676;-0.2954577102753941;-1.8571251481271338;1.0
-0.220727472623066;-0.0954362995180546;1.606962809065428;-0.9983510799955639;-0.8482123066217725;0.34087264349844604;1.0
-0.8242356048156974;-0.6435362621586098;0.022799359909874833;-0.41514834160932634;-0.8367685139504166;0.1780579922669216;1.0
-0.3541508811713321;0.11092711549317082;0.02996340873986058;0.009838259665015904;-0.6415121401406113;-0.25611441101714355;1.0
-0.849478410300677;0.9331990216679571;-0.14913781200977572;0.9543661603224368;-1.2907784009875822;0.6936377211667489;1.0
-1.0083862042338751;-0.42237358377747897;-0.04607856810189342;0.02000442853049519;-0.9107429301727191;0.04237911624065124;1.0
1.0717858550406627;0.16130527284207252;2.861260407140905;-1.3816109397421463;0.3186360987448327;1.5619825277348793;1.0
-0.13991865842333862;0.19705861967211047;1.6140954306356219;0.13269288672223983;-0.6474791086861144;1.0192670236297978;1.0
-1.2448116597155936;-0.25686237001927287;-0.06856515263249004;-0.1355836859317206;-1.0768789440262838;-0.06616398458036506;1.0
-0.94812178417907;-0.4792557451979193;-0.07495590657943717;-0.1562257652172604;-0.92990755939526;-0.1204355349908732;1.0
-0.5198566882762641;-0.04947145984388911;-0.24182631439233632;-1.2649204220600503;-0.964926883608768;0.39514419390895417;1.0
-1.1501542847876816;-0.11090183442413418;-2.245035758848973;1.0360056821235333;-1.0584705143000037;-0.1204355349908732;1.0
-1.2128175800110308;0.17050124915377077;-0.4705927355412415;1.5900025130865054;-1.0817866195347554;0.015243341035397168;1.0
-1.1361390945018275;-0.6994499181417245;-0.22091121401705088;-0.707236039176142;-0.8870209390372209;0.12378644185641346;1.0
-1.0348684569169357;0.08080005851960707;2.7983565637556644;-0.290821436985586;-1.0922291092814138;-0.4732006126591761;1.0
-1.4634942216617883;-0.4227263479950117;-0.12372837773593567;-0.4703647720102149;-0.998350902616174;-0.06616398458036506;1.0
-0.7849675611591239;-0.2658813472024865;-0.12337300103280474;0.4027076876991464;-0.8468985084807397;0.015243341035397168;1.0
-1.3511627439052354;-0.004644335773722497;0.09114705557979845;0.7706943157511633;-1.099725193355789;-0.03902820937511098;1.0
-0.9167091491429855;-0.5479653830947637;-0.19826271827253256;-0.140137612992683;-0.8817866316791357;0.15092221706166753;1.0
-0.9257992545708893;-0.3210300379380746;-0.4581493191464755;0.6134280988043486;-0.9100906955308068;0.1780579922669216;1.0
-1.0199059551974037;-0.5020838531788042;-0.19793738776748193;-0.05809582277291355;-0.9208141415023285;-0.011892434169856905;1.0
-0.7415758152067256;-0.003691722025131698;0.51609529363173;-1.9245879446072869;-0.425370610366298;-2.616926853874248;1.0
-0.6413589663364012;0.963371255146918;-0.6418149242380107;1.027967093520561;-1.1903586582208936;0.06951489144590531;1.0
-1.2103493524938125;-0.5568115316048221;-0.07343162085141651;-0.4583508830503489;-1.0688207607624647;4.16701694743927;1.0
-1.06184543145972;0.2201818730037769;-0.35102098843206614;1.2238373772758713;-1.176460464786489;4.221288497849779;1.0
-0.8375209593327232;-0.30744791405302724;-0.2727743210603389;0.43835963521152316;-0.9012400304237277;-0.09329975978561912;1.0
-0.4340001001896184;-0.3086542610489723;-0.7134103839468532;-2.0734012933366244;-0.4485033605421722;-2.1827544505901826;1.0
-0.7651293919920091;-0.5163238727665694;-0.09760819005583457;0.2826600262110831;-0.8569422619956243;0.015243341035397168;1.0
-1.012323272337552;-0.46617541726073836;-0.35102098843206614;0.058884402005103684;-0.9440546877613145;-0.1204355349908732;1.0
-1.2937785315738952;-0.26560405719630953;-0.024665921141302786;0.11318827301484079;-1.0370574187637418;0.09665066665115939;1.0
-0.5178718916036809;1.0213646556367573;-1.3945579707839053;0.2442725777174896;-0.7260260605864746;0.5579588451404787;1.0
-0.9389511124582276;-0.38206907775331783;-0.32339845922563737;0.3589554871070056;-0.9236946341433621;0.015243341035397168;1.0
-0.797823817854349;-0.13788755486336543;0.5732872800895967;-1.0277883722904044;-0.5984323216208746;0.39514419390895417;1.0
-1.1993076832426117;-0.18943819587267155;-0.5000299996008996;0.2509910961497012;-1.0341806321691493;-0.3103859614276517;1.0
-0.7287417393098237;-0.2272596560104104;1.590702618129547;0.769537929595912;-0.8587433682160787;-0.09329975978561912;1.0
-0.24519152594518043;-0.009985507834034615;-0.14913781200977572;-0.909084092495415;-0.8735737192175718;0.6665019459614949;1.0
-0.38288729938305094;0.7811194334275119;-0.20670606153644447;0.6505051523079561;-0.8794768914437373;-1.96566824894815;1.0
-0.7055462548946525;-0.6226311980019092;-0.07290950918825556;0.0605751084215818;-0.8044010702639234;0.1780579922669216;1.0
-1.053587894107421;-0.051591933984022405;-0.016606590077876442;0.5074123294403824;-1.0930059149107623;4.004202296207746;1.0
-0.9652350493053727;-0.09725536793184039;-0.34178450323627524;0.6363336332980151;-0.9878752543205255;-0.17470708540138133;1.0
-1.3418061183070813;0.33488617863112174;-0.2591189454338596;0.024989837598682146;-1.2494222403968438;-1.504360070458831;1.0
-1.0902512922306082;-0.45942546797578715;-0.1989265683571652;0.08909163307873537;-0.9693450834959283;0.15092221706166753;1.0
-0.8588453991210404;-0.4540790848447926;-0.19793738776748193;-0.36478882086629966;-0.8325986846187721;0.313736868293192;1.0
-0.8196607004859134;-0.5151573471735557;-0.5270217063386782;-0.001067834907693605;-0.8677671665921911;0.23232954267742975;1.0
-1.293730172741732;0.026259700210182507;-0.07343162085141651;0.9675399793898317;-1.1101138083696307;0.04237911624065124;1.0
-0.8115256566737343;-0.5494818877407074;-0.31993632716174625;-0.42755776199105255;-0.8333423825848553;-0.011892434169856905;1.0
-0.7292368973748398;0.831557686208608;2.1411449799701265;1.0069997469080223;-1.0525811502928475;-1.9385324737428962;1.0
0.12228667756204836;0.6808738076814803;-0.06680556687666296;0.7776412682217612;-0.5580726553872682;0.12378644185641346;1.0
-0.6648893689006216;0.6749321470746161;0.32321705590135247;0.45076488575507595;-1.1901804991136349;0.4765515195247164;1.0
-1.1423608186354146;-0.453052642881247;-0.31340899537249883;-0.26275805071692765;-0.9446780789607309;0.15092221706166753;1.0
-1.275721175883354;0.15199071023819682;-0.02120836861717813;1.6147774561955464;-1.1480765217274795;-0.011892434169856905;1.0
-0.6303002728385565;0.9967192725970485;-1.4840537430629643;1.528619087001315;-1.2831768788843751;0.6665019459614949;1.0
-0.9457355878109228;-0.5327999860552108;-0.19995668055745625;0.05079013932127529;-0.9241640259164605;-0.06616398458036506;1.0
-0.4399505621077866;0.5541568151782802;-0.17174129648650402;-0.5471358516275903;-0.755981763388949;-1.2601380936115443;1.0
-0.6646323463987449;-0.30679429714532863;0.014093680319006617;0.6875550648161168;-0.8488173107193432;-0.25611441101714355;1.0
-0.36629112528966234;0.24702602394864298;-0.17472370068829507;2.329539812907394;-0.8598448230814143;-0.011892434169856905;1.0
-0.9528687975114712;-0.4217533766396298;-0.2945733897613604;0.008271534630967683;-0.9004038739595539;0.06951489144590531;1.0
-0.7179818052928507;-0.0074416472538970675;2.6468010018812005;1.406644591949607;-0.938729005616229;0.1780579922669216;1.0
-1.1667213367084348;-0.599543124867247;-0.22282517140391178;-0.31638497503207486;-0.9743577096358624;-0.03902820937511098;1.0
0.5431607047465613;0.36501242721969424;0.3830486725034285;-0.4495700618756229;0.142169256985119;-1.8028535977166258;1.0
-0.9986386068617195;0.35409945840893303;0.12265982509974303;0.1720956524982723;-1.1685392912880521;0.313736868293192;1.0
-0.7556102035587119;-0.5341179570758013;-0.3005501943264937;0.01983844471906263;-0.8036931026594654;-0.1204355349908732;1.0
-1.0286414547748355;0.21077368445586578;-0.025501302959211727;1.671121779236738;-1.0936800817016523;-0.03902820937511098;1.0
-1.1920883333555612;-0.16363256703394738;2.140433712022307;0.3143778419904376;-1.0855514953677543;0.04237911624065124;1.0
-0.6895948356602692;-0.36893810745510053;-0.04888290126945452;0.3291067205581516;-0.8538047069657004;-0.1204355349908732;1.0
-0.698209149299381;0.8196527154794409;0.9364348933502639;-0.6060890055609756;-0.8284002570854397;0.9378596980140357;1.0
-0.44900342088087086;-0.028306330501391447;-0.3257855913792797;1.4531518450318157;-0.6939645656483698;-0.44606483745392206;1.0
-0.93599118508685;-0.45378187378118046;-0.09831894346209562;0.14082416596422154;-0.859509710655514;-0.1204355349908732;1.0
-0.8847140852284563;-0.3832926834155837;-0.09968320838955029;0.03668361984202077;-0.8438247961418054;0.06951489144590531;1.0
-1.1260927974547705;-0.5417990113089413;-0.14913781200977572;-0.15330066369410444;-0.9399439193263301;-0.011892434169856905;1.0
-0.2662117710953191;0.25313345094440726;-0.346514667529783;-0.8266334475070003;-0.5951976963868509;-1.585767396074593;1.0
-1.171228755469912;-0.5209144833721767;-0.4478703500941107;-0.11722239495447687;-0.9425330127832263;-0.03902820937511098;1.0
0.4362898780992023;0.2698782678049472;-0.28559588496188004;-0.8019274368284522;-0.2235054175613678;-1.3144096440220523;1.0
-0.2651772643776146;-0.06522613248101233;-0.13150925713079614;-0.6870294696415453;-0.6537099994793154;0.7479092715772572;1.0
-0.6419505673087784;-0.45156530157060243;-1.9492020667642413;0.38298918287909667;-0.7993551118594421;0.04237911624065124;1.0
-0.6854380797031014;0.2026959547803125;-0.22091121401705088;1.9852324445574236;-0.9621335689671405;0.015243341035397168;1.0
-0.8958111732440166;0.33203285636763874;-0.2770672554023729;1.9056099741276762;-1.1631820748721378;4.275560048260287;1.0
-0.8971195890400508;-0.31391081868757553;1.1811044527640147;0.37350086363857227;-0.9091644887069016;-0.06616398458036506;1.0
-0.8435821024546695;0.9030410301943486;0.0071687079171796255;1.0122969160552033;-1.1161958368444134;-2.0742113497691665;1.0
-1.0721684891706103;0.8181565900706067;0.1941262845467587;0.4290654794254593;-1.2522349264373993;0.12378644185641346;1.0
-0.8621588210445986;0.08220874588503188;2.773377797859347;1.4961009944251469;-0.9639093954003465;0.09665066665115939;1.0
-1.0175839173194932;-0.3318313636682216;-0.12390241495698932;0.1829804683212951;-0.9501934942840132;0.04237911624065124;1.0
-0.6138519292509639;1.1069443087500253;-0.10797168944321893;0.28468618588789446;-0.764323799839528;-2.1013471249744207;1.0
0.04767304575085628;1.1800190935265444;2.881551969523238;1.7512493483524267;-0.7533719115105556;-1.0430518919695118;1.0
-1.4405168193314764;0.15086638756837256;-1.5432229897366732;-0.9870623825475193;-1.0034723917947634;0.2051937674721757;1.0
0.9162287373627005;1.339645037061654;-0.02317651390014034;2.36988109745502;-0.38124759992285073;-0.9887803415590035;1.0
-1.7509686949350376;0.8008774381891752;0.10851029775993086;-0.4598144088751377;-0.49506194135094167;-0.06616398458036506;1.0
-0.6886487085951722;-0.17510176887264306;-0.5395344180714233;1.2564316537799651;-0.8976807973065248;0.09665066665115939;1.0
-0.7344865545463415;-0.24378001353016562;-0.1244105101996626;0.43847241414430455;-0.7024966119873602;0.015243341035397168;1.0
2.595227127690974;-0.5034430380879796;-2.0496715158404326;1.4129106982679942;1.3270344123115256;-1.4500885200483227;1.0
-0.9430209665592753;-0.3994320733911908;-0.19960860611534853;0.2139343415414021;-0.914666665887158;-0.1204355349908732;1.0
-0.5991931512203374;0.6637846725100156;-2.2143664945808523;0.20594376613779497;-1.1288562455268343;-0.5546079382749384;1.0
-1.339945089870797;-0.044652336127514944;-0.12390241495698932;0.05706967484160352;-1.2546249925725552;3.29867214087114;1.0
-0.661953025153356;-0.26699491473701287;-0.696814131831057;0.5784937657364588;-0.8649735251606938;-0.011892434169856905;1.0
-1.148766666106219;-0.05112720145658473;-0.14913781200977572;0.5369127364646953;-1.0794747501308657;-0.25611441101714355;1.0
-0.9412775808739715;-0.4329126641556528;-0.02296082674584452;0.24725770831828872;-0.9233916560113924;0.1780579922669216;1.0
-1.2348796005850444;0.025112664480890102;-0.46633505443486406;0.8807909070831815;-1.055417901298782;-0.17470708540138133;1.0
-0.190438567922653;-0.13905230929020812;-0.12164252865375516;-2.114184496911269;-0.30447857817198304;-1.7214462721008634;1.0
-0.25198925025608254;1.0211004107656816;-0.2379177630870479;0.8843828090131641;-0.887295293639095;-1.124459217585274;1.0
-1.1594045604023642;-0.10762848833640629;-0.12372837773593567;0.8646787776826113;-1.0841850034408897;0.015243341035397168;1.0
-0.7064654797893618;-0.13275407106735668;-0.07394662895453563;1.3500105008331291;-0.8886561258134746;0.06951489144590531;1.0
-0.9030418435227717;-0.2247719121627453;-0.12372837773593567;0.3990712306587587;-0.8670058625524008;-0.1204355349908732;1.0
-1.2437183748720613;-0.5092895094201262;-0.1231915587019814;-0.16661722448923966;-0.9989286303377554;-0.14757131019612726;1.0
-1.1765668944007956;-0.4002710966904481;-2.474667099819761;-0.2520570623827754;-1.0116133608529916;0.15092221706166753;1.0
-1.0498574438430057;-0.5030688101909823;-0.42297597192041675;-0.1534814804971071;-0.956147895272881;-0.25611441101714355;1.0
-0.22236842105229115;0.6539030298342408;0.08017969647819939;0.6224807711170112;-0.7345598786419542;-1.7214462721008634;1.0
-0.010384564154815467;0.30941956975968243;0.33874653101075924;0.25490785755003104;-0.5334879098912154;1.3991678765033548;1.0
-0.46259803741315375;-0.3336698150747018;-0.010105058435934237;-1.277178911717353;-0.9312602281533294;0.09665066665115939;1.0
-0.6827123382109732;-0.22883760161249816;-0.12473802413092262;0.7329356091536653;-0.857563569801549;0.015243341035397168;1.0
-0.41667829729219524;0.3334234683603976;-0.14913781200977572;2.4139411855086395;-0.9183751172526676;-0.06616398458036506;1.0
-1.5181314597868278;-0.10413488589162549;0.3399375821990915;0.17585704224362542;-1.277879419986004;-2.2098902257954367;1.0
-1.316647593690244;0.7835381261614855;0.4853922272175076;0.17722138400633147;-1.1185001589856414;-1.0159161167642576;1.0
-1.3256413727710388;0.9430138283441603;-0.06244680095785132;0.05508092194400217;-0.9179257509633701;-0.1204355349908732;1.0
-0.8339804723086942;-0.3903460531142099;-2.404305108329052;0.7936908651685911;-0.8218781980014818;-0.011892434169856905;1.0
0.4503231683524537;0.7496022082263799;-0.7520343888708887;0.546218375498142;-0.4077937475262532;-1.2330023184062902;1.0
-1.2805572892722217;-0.3823356152172563;-0.17420153969485602;-0.2843140209403835;-1.0147139397869773;-0.25611441101714355;1.0
-1.2383039208887958;1.491934007073018;-0.1854370038295467;0.9712888100938807;-0.6941400222794402;-0.6902868143012088;1.0
-0.6662511901484724;0.12483657341131389;-0.14913781200977572;1.5806915470387297;-0.9213306465717144;0.06951489144590531;1.0
-1.4337840127539137;-0.41932116467996283;-0.29750162287045245;-0.528703725526239;-1.1173416118224218;-0.03902820937511098;1.0
-1.2226586917731521;0.031589890256303474;-0.09968320838955029;0.6041491478986001;-1.0960787880642728;-0.03902820937511098;1.0
0.3498180174088707;0.4788070109626318;0.41513475992730176;-0.24966040379843082;-0.41540590056451554;-1.0159161167642576;1.0
2.0805499578041706;-1.3856313205344923;-0.11470446649849762;-0.9072660947150231;1.4150635380660914;-1.4500885200483227;1.0
-1.140133985437765;-0.6500777613922984;-0.14913781200977572;-0.3640540076588715;-0.8692144839296709;-0.03902820937511098;1.0
-1.463127558818848;-0.340805229438047;-0.09901035663961512;-0.3417031809762151;-1.138332355958967;-0.011892434169856905;1.0
1.236969647818821;-2.453317443144246;-0.18174283829036733;-4.043589874425156;1.3642013347893016;-1.3958169696378147;1.0
-1.108229786701953;-0.47625638974469153;-0.27113675140404003;0.06059839197881358;-0.9982818721897554;0.1780579922669216;1.0
-0.9777098164022294;0.2905971926257744;-0.4864391050111029;1.6213040239356136;-1.0849718264562593;-0.3103859614276517;1.0
-1.0493503205053751;-0.09999145219965594;-0.2945733897613604;0.7487926273024018;-1.0640146931709615;0.04237911624065124;1.0
-1.1433301503475242;-0.220605796291235;1.5711369385518548;0.24417508151088055;-1.0222649267778217;-0.22897863581188949;1.0
-0.6058672724632995;2.327969430984015;0.7836135727261223;0.05172120359589061;-0.18092893366362486;0.7750450467825112;1.0
-0.21470954798207803;1.3492888679522697;2.8489263202026205;2.06080817989124;-1.074456278245271;-0.03902820937511098;1.0
-0.7358210040623571;-0.6554543405235724;-2.4283049746656102;0.07199847570284246;-0.40763844572627966;-2.1013471249744207;1.0
-1.480842340739831;-0.6189838444136627;-0.1989265683571652;-0.7393057154461631;-1.0515962558511922;-0.22897863581188949;1.0
-1.13464835627915;-0.2674214700040052;-2.421476432920315;0.1566734515915141;-1.134525640103936;3.1629932648448698;1.0
-0.6555295655632499;-0.3232924951968338;-2.333585488038125;0.33084330192429784;-0.8015907481145941;-0.1204355349908732;1.0
-0.6464238004851249;-0.21070501469327768;2.163677117879164;0.7268042804082218;-0.8913537521296734;0.06951489144590531;1.0
-0.7490713382297867;-0.06799462250897682;-0.12505697560646256;-1.5471568693325082;-0.6937954221952399;-0.22897863581188949;1.0
-0.26898374584093954;-0.18325553873887768;-0.39182073217010416;-1.0443137175398343;-0.9001576805650497;0.3680084187037001;1.0
-0.639270913950196;-0.06818451847734483;-0.05343994266674192;-1.6196098427718526;-1.0211441733121924;0.23232954267742975;1.0
-0.8611334966812327;-0.5752328873808233;-0.17370026514115497;-0.5202443755103558;-0.7735600747211296;-0.06616398458036506;1.0
-0.9062713811606987;-0.3599101581275325;0.004377520061341225;0.10308912909472719;-0.8432508625563992;0.09665066665115939;1.0
-0.17872103362323086;0.5422582133656955;-0.19462383632714342;-0.10321391210125362;-0.4810440424969443;0.720773496372003;1.0
-1.3051400497669354;-0.6257512897752154;-1.0253422804390733;-0.9377564612091704;-1.0017475102749178;0.1780579922669216;1.0
-0.915140490550359;0.06507407587469678;-0.31446201577867045;1.1184879069690743;-1.0078665026409825;0.1780579922669216;1.0
-0.8781118494274324;-0.24045702816623302;-2.1303545504370174;-2.2785182842637637;-0.7905293094983729;-1.7757178225113717;1.0
-0.637538866145823;0.1282913523693167;-0.19859241563000157;1.5604314539872755;-0.9344085384685926;0.09665066665115939;1.0
-0.8908910171456506;0.4558675579737678;0.3885807565420278;-0.048622276576203015;-0.6665808926682693;0.6665019459614949;1.0
-0.681635169754957;-0.00886824949259907;-0.22233717564633462;1.0866305620846934;-1.0148473226619614;-0.36465751183815986;1.0
0.07123546590339153;1.1695005630495872;-0.6267410673421387;1.9847907501240825;-0.6458762031649474;-1.9928040241534042;1.0
-0.4079322898169209;0.8672711245489154;-2.2251014903724906;0.37705057906291356;-0.9649254738301658;-0.3375217366329058;1.0
-0.9436208350311076;0.09676575854170645;-0.14913781200977572;1.0297604031182177;-1.0857308826509688;-0.22897863581188949;1.0
-1.534177734096196;0.5864627661535972;-0.29750162287045245;0.16751978741975415;-0.58573817846009;-0.22897863581188949;1.0
-0.8412969099765236;-0.05619621931829793;-0.1989265683571652;0.7999377387129826;-1.0006231147335354;-0.06616398458036506;1.0
-1.0769334497660452;-0.28362121260748374;-0.09901035663961512;0.3244983133276164;-1.0363599378925668;0.25946531788268384;1.0
-0.7736659011372604;-0.2404717296469041;-0.009411282220495455;0.8105449103348287;-0.9206196331144241;-0.09329975978561912;1.0
-1.1649339021967855;-0.5249066998010403;-2.5109121515654165;-0.20731729452732864;-0.9841890218866765;-0.011892434169856905;1.0
-1.151509005541513;-0.563742795969723;-0.14913781200977572;-0.3644468088876275;-0.9179375940747763;-0.06616398458036506;1.0
-1.0350941612730344;-0.48996272479623953;-0.41230695270311846;0.007620942333405141;-0.9943002620106747;0.09665066665115939;1.0
-0.7479377145697073;0.3480460988902849;-0.3257855913792797;2.023943697513721;-1.0243216617273698;0.2051937674721757;1.0
-0.7629864176748185;-0.04457522998271601;-2.072937543027567;1.130834714982288;-0.8916746115393487;0.09665066665115939;1.0
-1.1231056856845671;-0.36592308792491307;-0.2687601486885678;-0.18721609704961362;-1.0336425555161997;0.04237911624065124;1.0
-1.2578417008944054;-0.6487224510799461;-2.3170117831356003;-0.44348536634960467;-0.9697075766973;0.09665066665115939;1.0
-1.0739014399420919;-0.49452663716308315;-0.17353759988862882;-0.06379897072405127;-0.9265112334307352;0.06951489144590531;1.0
0.6157970952483778;-0.12058340546910759;-0.2687601486885678;-0.002512746534814624;-0.017436307070966012;0.2051937674721757;2.0
-0.8249391343119966;2.813266825971158;-1.4849905261724752;-0.03128809470664193;1.0299746350684926;-0.25611441101714355;2.0
-0.9575967252631159;2.1750277130993854;1.3860155087013912;-0.2450837002154023;0.7043159263650273;-0.2832501862223976;2.0
-0.7123380761305195;0.4929822560142299;-0.27298211351252527;-0.8277474049352338;2.0248513466261095;-1.124459217585274;2.0
-0.37850112438750017;1.1797350549976386;1.2325001766302743;1.4736093086158808;1.1706903498006862;2.0504264814294526;2.0
-0.7982599356217288;2.837659583138215;1.7953897275577018;0.6011424887020684;0.9399294419427227;-0.8259656903274791;2.0
2.1702285845511704;0.42253825749897006;0.11403132868356704;2.7114202861218697;0.9655411233716964;0.5850946203457327;2.0
-0.4872265159193882;1.0541965922382748;0.9124597385837087;1.4872258291169689;1.2728726866312159;-0.36465751183815986;2.0
-0.10500350527869425;1.10416911938059;-1.108381543767759;-0.5826469014706749;0.25228049315706547;-0.418929062248668;2.0
1.210867126953187;-0.35601287174870516;0.1885959185466806;1.1004646676589733;0.6980798570115683;-0.1204355349908732;2.0
-0.03876487322566366;1.3422498375153957;-0.14913781200977572;0.2802543184991271;0.18451291637923614;-0.6631510390959546;2.0
-0.40744195781862574;0.7562627227199293;1.533845087732837;-0.25158165095669466;2.307998708678977;-1.0701876671747657;2.0
-0.31140990495081416;1.0729138836310723;-0.05218076017538594;0.9890674374379389;1.993431994924249;-1.0159161167642576;2.0
-0.29725562121499816;1.2187511231322825;2.183168517437648;1.3935015358308327;1.6301641897620514;-0.7445583647117169;2.0
0.0473541549211194;-1.8951921765604443;0.46492351627469125;0.8250241272229631;0.11083389977330632;-0.5546079382749384;2.0
-0.3269754975331157;0.37640645808729284;-0.19248331753573752;-0.5527107136149051;1.494103362420829;0.7479092715772572;2.0
-1.7895332782231712;0.28932448704591013;-0.4707889839683056;-1.3739278210155692;-0.698352223148598;-0.5817437134801924;2.0
-0.45769275248097524;1.01452270106577;1.2895201571138317;0.6926354124251614;1.8507430651086003;-0.7174225895064628;2.0
-0.8403893638202858;0.9961300295449615;2.2438022095523715;-0.11480163816630473;1.1893801990529576;-0.5817437134801924;2.0
-0.22985086286831535;1.3554631396351782;2.289809998922895;1.7703615905809387;1.9478669969549778;-0.9887803415590035;2.0
2.019847106614379;-1.0765200727812045;-0.07445467748869229;-0.703565275695008;1.9684789734369719;0.06951489144590531;2.0
-0.1340624339908139;1.3847377641004808;-0.24695289085154892;1.944047581637952;1.8268729340571601;-0.9345087911484954;2.0
-1.5386015912398574;0.5592252533756606;-0.17564405639615502;-0.3885341855579257;-0.29615380056927354;-1.6671747216903554;2.0
-0.7050609330310543;0.866273245727727;-1.813045927361234;0.8785289296468562;0.7930819672433624;-0.7445583647117169;2.0
0.5751095964804296;-2.37859402509724;-0.21003645613716107;-0.8177794342799246;1.0667278978253032;-2.5083837530532316;2.0
0.008000912163666737;0.9514514618240305;1.9109389022348866;-0.19462487277124157;0.28888099697984493;-0.3103859614276517;2.0
1.8161503137454218;-0.39298575586142137;2.552732032441878;1.0056007045679003;1.1672873498271505;1.2363532252718303;2.0
-0.5519735418653591;0.9385426521730407;1.7917346006036277;1.0218687075262876;1.451856541206931;0.09665066665115939;2.0
2.160812002752333;-0.8009558096949982;2.4999532075314774;0.1277324861831375;1.6749220909944333;0.6936377211667489;2.0
-0.49336400464037494;-1.0868575339074742;0.09648671930401172;0.9708377140416106;-0.33008355552066454;-1.1787307679957821;2.0
0.7470904732475663;-0.9411029557166483;0.5877357819315842;1.630691622373404;0.3530355305368822;-0.9616445663537494;2.0
-0.8915131898604345;0.8462014975271243;1.2246943122876748;0.23722248669876717;0.9433362713825791;-1.0159161167642576;2.0
-0.4778158624906385;0.2426192279207195;1.3069597089521932;0.11475858795582619;-0.44475118229623817;1.806204504582166;2.0
-0.9888368429412119;0.9311572208897128;-1.6341636773507817;0.6749798362387832;0.5886106078827358;-0.39179328704341393;2.0
-0.2928766209746712;1.1699437054236768;0.7136572188709295;1.4332420832296253;1.824335663564797;-1.1787307679957821;2.0
0.4614380843735639;-2.725808894587764;-0.08334552683644024;-0.6727682366996098;0.902945745523577;-1.2330023184062902;2.0
-0.7803374258644451;0.6382058301766343;1.4159034494585996;-0.5661398618298424;1.613252456169093;-1.0973234423800198;2.0
0.4155080524836772;-2.0907245683243367;-0.5620411189596756;-0.8159191253550301;0.95488585016535;-1.884260923332388;2.0
-0.9290222037950675;0.81501398714774;1.1113038618372872;0.765297366915431;0.8069523911037846;0.7479092715772572;2.0
-0.4608662112086012;1.0733048169732111;-0.08214930346965248;1.065645579423253;1.7712196010021903;-1.2330023184062902;2.0
-0.7219714410540384;2.9037501763578293;0.43602651259071645;0.4817753889817692;1.3843538316459552;0.5036872947299704;2.0
-0.7436605360866795;2.9510170006959315;1.8509476572596304;0.6348718796578008;1.0470450266351337;-0.22897863581188949;2.0
-0.4778062021942572;0.9102936657238403;1.7860857680382407;0.46077582506042253;1.7365312032289721;-1.1787307679957821;2.0
-0.6436874125069648;1.510951464065701;2.4978838361290907;1.024474126953448;1.1831522100105227;-0.7174225895064628;2.0
0.9931345561941305;-0.6284854849117117;-0.04077404819487022;-1.0352856683303262;0.3600294974605044;-0.3375217366329058;2.0
-0.7824517222654359;0.7011435285141318;1.6009369736009547;0.26700064450650246;1.3622528384405566;-0.36465751183815986;2.0
-0.040448206651827745;-0.9814268530511403;-0.2719500776666686;0.48423101683748265;-0.03182999722509104;1.046402798835052;2.0
-0.7526701283491163;0.4574490941672708;1.5548823739796191;-1.0825817239325901;1.9298408126220894;-1.0159161167642576;2.0
-1.5145594497951975;0.6939404494245573;-0.7040125062427275;-0.38540799281165483;-0.5937746062936309;-0.7445583647117169;2.0
-1.1198094550529334;2.3558238169479937;-0.33905368673693054;0.8055143933735098;0.16335046294704852;1.073538574040306;2.0
-0.9005742214792386;2.578783253766014;-0.057028612767106045;0.9506993856657969;0.8156319809148886;-1.3144096440220523;2.0
0.06376213020287738;1.1406081658594853;0.3919232185066076;-0.14456870083413392;0.36636526455966917;-0.5003363878644302;2.0
1.7359491445126056;-1.0382686760875024;2.760978917686175;-0.12249675064058063;1.1727569755098224;0.5850946203457327;2.0
1.3169000197423149;1.511152741621316;-0.31361852494311526;4.146232336982187;2.170595198116744;-0.7445583647117169;2.0
-0.36122063111396996;-0.6715016497741341;-0.2480470192502266;-0.13117215086047557;-0.28998984075035006;0.6122303955509868;2.0
-0.02165825863076405;1.3138671720408257;1.8884293227523181;-0.17909384717750307;0.4445747638593337;-0.7174225895064628;2.0
-0.809147170699966;0.7991294061733394;1.1461478023402711;0.6572282330415317;0.7403872614851301;-0.09329975978561912;2.0
2.564885711874802;-0.9842874905551331;-0.04956029931499754;2.8321716697070256;3.946892356579553;-1.1787307679957821;2.0
-0.3688058140860868;2.8400856299454533;0.9078529989716825;0.7391292853628895;1.3717070118479882;0.04237911624065124;2.0
-0.45347245422056387;1.1311278977050052;2.3071075011280913;0.8862099145932998;1.7539693828963878;-1.0973234423800198;2.0
-0.4459639219143142;0.3287022495657098;0.03508058647556445;-0.6069662250831201;1.6547541058105881;0.44941574431946235;2.0
0.14978793130661042;1.6705263930283645;-0.9247942266848915;0.609849215386336;0.41265257328003946;-0.36465751183815986;2.0
-0.9181970188950471;2.5857279804103253;1.5409392383144442;0.525051761199026;0.629459668681207;0.4222799691142083;2.0
-0.18250504589638614;1.6169840043280292;0.7652308812021298;-1.4188804128893666;0.6850901695708472;-0.36465751183815986;2.0
0.2440671023257217;-0.4664202428986169;0.017074276849177252;-0.8926869698958028;0.024841554163218565;-0.2832501862223976;2.0
-0.026821079916610653;1.144762176814263;-0.42004722154704033;-0.4724488232431822;0.36543160361422683;-0.8259656903274791;2.0
-0.21750291574508587;1.386859105060869;2.851533008679268;-0.018422109662339876;0.13248987766053993;-0.3375217366329058;2.0
0.29371624812360264;-0.30255824244971896;-0.08090877553372357;0.48653134931990333;-0.14982405676368515;0.34087264349844604;2.0
-0.20414636728428295;1.1836820117165543;0.6184388483458074;1.6250410415724523;1.8612646219572664;-1.0973234423800198;2.0
-0.6805426658291327;0.8680922078226656;2.6579996887192157;0.3469432871488003;1.2597476124026474;-0.5817437134801924;2.0
-0.5806278060622498;0.4759332142358463;1.4234582726211753;-0.5388832430076925;1.8792366747687927;-1.1787307679957821;2.0
-0.18097681890811002;0.9308862650347667;1.6309500834665438;-0.8163290809054117;0.25661865974831144;-0.5817437134801924;2.0
-0.6274101095436438;1.0343600967930469;0.16309676169419038;0.5486031525647236;1.2390331288906937;-0.5274721630696843;2.0
-0.5980023064790311;0.5765572068961936;-0.14913781200977572;-0.4914653813389776;1.8753740507914478;-1.0973234423800198;2.0
-0.8059350333696402;0.5062963641550254;-1.1393117038684784;0.5804523635494202;1.0892342563783788;0.09665066665115939;2.0
0.5814974563622363;-2.467310509451309;1.4441023911066786;0.13547418720780546;0.560871701231313;-1.124459217585274;2.0
-0.7039440716819657;2.7791647781352666;1.9346440724965295;0.4174635790633025;1.2831298500409951;0.1780579922669216;2.0
-0.7849366894779025;2.880697699636545;-0.47422910345449387;0.6115380474126278;1.4862422040447967;-0.39179328704341393;2.0
-1.2413597915377617;2.1603464580216207;-0.7714972663521408;0.6953167632683993;0.5197320199224971;-2.3455691018217073;2.0
-0.44865852768915065;1.0474205482377599;0.7968485585906191;1.073732613368622;1.3963651587672739;0.6936377211667489;2.0
0.09859925189067992;0.6409858883580899;2.385977763476555;0.09397666228727607;2.1838920940798014;0.7479092715772572;2.0
1.4637120151976286;-1.0856388327491344;-0.13783606977141055;0.5746781078576474;2.077628668360182;-1.3686811944325605;2.0
1.190255198859099;-0.3701619553350524;0.005451053852048554;-0.397841782322676;0.3864818185864778;-0.03902820937511098;2.0
-0.7511453879043589;0.7725075225675241;1.3655467977585758;0.4162173841516213;0.9575679828014206;-0.25611441101714355;2.0
-1.3915800184215916;0.9472310087097763;-0.12581902739137732;-0.19918974955205246;-0.04118684513592558;0.720773496372003;2.0
-1.4702064990378885;1.799273039601771;1.1015192052301472;-0.18573258992961672;-0.1223950834312726;1.453439426913863;2.0
-0.8319550589069626;1.0049169109786367;1.8200933442128238;0.5448417817073763;0.9595176453229836;-0.4732006126591761;2.0
-0.582384488030895;0.710830094845177;-1.1174652912275884;0.2591111150586913;1.3960178548897426;-0.8531014655327331;2.0
1.2989618482298686;-0.48955241974073155;1.4418392658181618;1.5311387405118877;2.0466701181594447;-1.9385324737428962;2.0
-0.4311174535547717;2.579381226919994;-0.03577264371110453;1.18530626854187;0.9566354572943174;-0.9345087911484954;2.0
2.0050501277170873;0.19056797396232716;2.8049950646019823;2.244543293354763;1.0219516369435466;2.267512683071485;2.0
-0.5187994052037604;0.8700878373280069;1.8347526332169624;0.3334494740773801;1.8937739005136094;-1.124459217585274;2.0
2.0896758984016444;-0.01762866474712061;-0.16927097031418448;0.8985542372266165;1.0627023668786708;1.3448963260928468;2.0
1.052791045793802;-2.157554331621092;1.4474216415298369;0.3977612770933476;0.8113429277387053;-1.151594992790528;2.0
-0.3913430121041799;0.7347418041806025;0.6360553618621662;-0.12606983991268148;2.460064568466911;-1.0973234423800198;2.0
-1.4747851043996807;0.6084249052070453;0.05182771361059486;0.03818947316395386;-0.05195095193565958;1.1006743492455602;2.0
-0.06066854211691188;1.7709446967601965;1.7920883225669253;0.4034903382887027;0.27390712364686537;-0.418929062248668;2.0
-0.7649851011874489;2.8016703983380062;-1.8477749928486251;-0.46573665118123847;2.2462130440747017;-1.4772242952535768;2.0
-0.1546289858528719;0.8371383711436253;0.7136572188709295;-0.39826416285664495;0.03580442983093608;0.04237911624065124;2.0
-0.8753274392725336;0.926140400781569;0.5973681164929091;0.7006154364746845;0.8324267072870375;-0.4732006126591761;2.0
-1.040806265095571;2.438861217012008;1.305217965506066;0.37980157763290273;0.7731207136094413;-0.5817437134801924;2.0
0.1905054026362906;1.1791798381758976;0.15789285213245735;0.21205163812407807;0.508859109096166;-0.6360152638907006;2.0
0.6624549633469419;-2.1191536975838514;-0.6990434791301936;0.9891210670283384;0.6817192804380237;-1.0701876671747657;2.0
-0.9145398072417813;2.353595255384368;1.7775500253598344;0.19760714838615326;0.7938674109564958;0.12378644185641346;2.0
0.49589823572479474;-1.6455520050826522;-0.23827574676074662;0.470740718295244;0.5378827034836224;-1.151594992790528;2.0
1.632760557697171;-2.4144595732163583;-0.2836037963056446;-1.8111939109196262;2.052528854753892;-0.6631510390959546;2.0
-1.3483606978512077;0.5317124874577661;0.8204327063341188;0.21224941601545166;-0.11184904328319;1.5348467525296252;2.0
-0.34598009751947706;1.4426892449320905;0.5629669216310335;1.3807875550915942;1.7406238551951647;-1.124459217585274;2.0
0.07768800546844816;1.0624829476251358;-2.223830455145644;-0.9721014270682394;0.5452773408821312;-0.2832501862223976;2.0
2.3644347450879697;-1.9014256579971958;0.12632895208045236;-0.8703463587349681;3.9533843428693767;-1.3144096440220523;2.0
1.1953021889206348;-0.3999743382628953;-0.22382094653086;-0.5797697403526763;0.4124747861427051;0.12378644185641346;2.0
-1.1808483459350496;2.147751935419131;-2.155802509796515;0.22081674632893186;0.2233182486168595;2.267512683071485;2.0
0.10551693464380782;2.116614939452004;1.2531216391472904;0.13183956977601607;0.7666609587148202;-0.6902868143012088;2.0
1.9732164044973821;-0.8721898382756949;-0.1699534502567066;0.5132819801213151;1.2043807819865138;0.4765515195247164;2.0
-0.07349629586478933;1.8700337924843824;2.948547359973012;0.8754370243712017;0.07731968443152362;0.313736868293192;2.0
-0.5403694832223453;0.8227708543268789;-1.7546165921054764;-0.8102093308396314;-0.028454624081321208;-0.6360152638907006;2.0
2.676825724879002;-2.141478401165533;-0.06345483597008254;2.335195306215764;3.4567581459103622;-1.3958169696378147;2.0
0.007616046068907692;1.5312460572356212;0.45984862926407516;-0.0934859142724241;0.6361894478343427;-0.9345087911484954;2.0
-0.8476786437810917;1.1281567592619537;1.5351446884276183;0.14377150976907088;1.0326433945574507;-0.8802372407379873;2.0
-0.8937165385226379;2.7326946316130494;1.4253784143606518;0.16358195580318102;0.803811445312404;-0.4732006126591761;2.0
-0.7234959496377223;1.3014374820716796;-0.28559588496188004;1.6703102657015614;1.2116951034369463;-1.151594992790528;2.0
-0.40642199295643;-0.8068629533459787;-1.3843594434721713;1.1699469446531559;0.19382822583662293;0.8293165971930193;2.0
-0.1323312189719959;0.9020774471898549;0.39573350745390606;1.663354527526497;0.5071462454637771;-0.3103859614276517;2.0
-0.5194889233650105;1.6170263119065358;-1.6970083791647037;1.1558086544117288;1.667894848118916;-0.798829915122225;2.0
0.20775981323108716;1.74920069639471;1.5627907395711622;0.8522580445540222;0.5066523645017641;-0.798829915122225;2.0
0.2390709068662439;1.7336662227949504;0.8729771731346911;1.0138839876646506;0.48449858074074764;-0.7445583647117169;2.0
-1.3859269983773737;0.6768509161647565;0.3114081842035743;-0.2971184463510144;-0.2483919166961033;-0.39179328704341393;2.0
-0.6546361215483791;1.1024337000246873;1.627253887670289;1.2059634394568166;1.1782638177873077;-0.6088794886854465;2.0
