RR_l_0;RR_l_0/RR_l_1;RR_l_1;RR_l_1/RR_l_2;RR_l_2;RR_l_2/RR_l_3;RR_l_3;RR_l_3/RR_l_4;RR_r_0;RR_r_0/RR_r_1;RR_r_1;RR_r_1/RR_r_2;RR_r_2;RR_r_2/RR_r_3;RR_r_3;RR_r_3/RR_r_4;seq_size;signal_mean;signal_std;wl_side;wr_side;P_val;Q_val;R_val;S_val;T_val;P_pos;Q_pos;R_pos;S_pos;T_pos;label
166.0;0.9171;181.0;1.0;181.0;1.0;181.0;1.0402;183.0;1.0223;179.0;1.1049;162.0;0.9643;168.0;0.9655;256.0;-0.2969;0.2549;128.0;128.0;-0.3588;-0.5994;1.5025;-0.6037;-0.196;0.4;0.48;0.505;0.525;0.67;0.0
222.0;2.22;100.0;0.813;123.0;1.0982;112.0;1.0275;115.0;1.0849;106.0;0.4775;222.0;2.0182;110.0;0.4955;154.0;-0.1438;0.496;74.0;80.0;-0.0604;-0.455;2.014;-1.0997;0.24;0.295;0.44;0.485;0.53;0.835;0.0
152.0;1.0133;150.0;1.0417;144.0;1.0213;141.0;1.0144;151.0;1.0786;140.0;1.037;135.0;0.9643;140.0;1.0;210.0;-0.2653;0.2325;105.0;105.0;-0.1371;-0.3619;1.1477;-0.5305;-0.2641;0.345;0.47;0.505;0.575;0.825;0.0
184.0;1.0279;179.0;0.9521;188.0;0.9843;191.0;1.0437;185.0;1.0452;177.0;1.0291;172.0;1.0238;168.0;0.96;257.0;-0.2063;0.247;128.0;129.0;-0.2372;-0.4566;1.6402;-0.5937;-0.0523;0.395;0.475;0.5;0.52;0.69;0.0
158.0;0.9875;160.0;1.0063;159.0;1.3475;118.0;0.6519;128.0;0.7273;176.0;1.1;160.0;1.0458;153.0;0.9623;198.0;-0.2731;0.1591;109.0;89.0;-0.1378;-0.4959;0.9778;-0.4168;-0.2522;0.405;0.525;0.55;0.57;0.905;0.0
171.0;0.9828;174.0;0.956;182.0;1.04;175.0;1.1076;161.0;1.0321;156.0;1.0612;147.0;2.0137;73.0;0.3303;230.0;-0.3003;0.3687;118.0;112.0;-0.247;-0.316;1.7007;-0.388;0.2009;0.37;0.465;0.52;0.605;0.55;0.0
163.0;1.0316;158.0;1.0064;157.0;0.9128;172.0;1.0424;164.0;0.988;166.0;1.0;166.0;1.0311;161.0;1.019;230.0;-0.258;0.1424;116.0;114.0;-0.1353;-0.4376;0.9542;-0.3566;-0.2192;0.385;0.485;0.505;0.525;0.82;0.0
165.0;2.1429;77.0;0.3195;241.0;1.4345;168.0;0.9711;159.0;0.9353;170.0;1.828;93.0;0.3523;264.0;1.6604;220.0;-0.1002;0.4001;109.0;111.0;-0.049;-0.1481;2.1359;-0.2939;0.4466;0.34;0.455;0.5;0.595;0.53;0.0
179.0;0.9781;183.0;1.0517;174.0;1.0235;170.0;0.914;175.0;0.9511;184.0;0.984;187.0;1.0163;184.0;1.011;245.0;-0.3323;0.2452;123.0;122.0;-0.247;-0.5482;1.418;-0.6764;-0.2517;0.375;0.48;0.505;0.525;0.685;0.0
168.0;1.012;166.0;1.0641;156.0;1.04;150.0;0.9146;123.0;0.6721;183.0;1.1731;156.0;0.9123;171.0;1.024;195.0;-0.3767;0.1752;109.0;86.0;-0.2646;-0.5554;0.9904;-0.4607;-0.3322;0.42;0.54;0.565;0.585;0.98;0.0
114.0;1.0;114.0;1.0459;109.0;1.0;109.0;0.982;110.0;1.25;88.0;0.6667;132.0;1.1892;111.0;1.0;157.0;-0.2565;0.4853;80.0;77.0;-0.352;-0.6025;1.909;-1.1555;0.0164;0.31;0.47;0.51;0.56;0.9;0.0
227.0;1.0413;218.0;0.9909;220.0;0.9955;221.0;0.9866;110.0;0.9821;112.0;0.5068;221.0;2.1048;105.0;0.9545;156.0;-0.0433;0.4883;79.0;77.0;0.0171;-0.2984;2.2997;-0.9903;0.2134;0.305;0.465;0.505;0.55;0.8;0.0
157.0;0.9632;163.0;0.9819;166.0;0.9881;168.0;1.1053;162.0;0.9939;163.0;1.094;149.0;1.0136;147.0;0.9608;227.0;-0.2425;0.3777;114.0;113.0;0.1189;-0.291;1.9471;-0.4819;0.2021;0.47;0.455;0.505;0.605;0.535;0.0
170.0;1.0119;168.0;1.0244;164.0;0.988;166.0;0.9765;178.0;0.9519;187.0;1.0447;179.0;1.0347;173.0;0.9943;251.0;-0.1899;0.2525;127.0;124.0;-0.2026;-0.4225;1.6514;-0.4921;0.0158;0.39;0.485;0.51;0.53;0.705;0.0
170.0;0.9497;179.0;1.017;176.0;1.0173;173.0;1.0;173.0;0.9943;174.0;1.0482;166.0;1.0247;162.0;0.9474;245.0;-0.2279;0.266;124.0;121.0;-0.2711;-0.548;1.7643;-0.5245;-0.042;0.395;0.485;0.51;0.53;0.705;0.0
175.0;1.0479;167.0;1.0121;165.0;0.9429;175.0;0.9722;189.0;1.0161;186.0;1.0109;184.0;1.0222;180.0;1.0227;255.0;-0.0818;0.2586;123.0;132.0;-0.1158;-0.3745;1.9044;-0.2592;0.0865;0.365;0.46;0.485;0.505;0.66;0.0
157.0;0.9752;161.0;0.9699;166.0;1.0061;165.0;1.0123;168.0;1.0244;164.0;1.0513;156.0;1.0541;148.0;0.9548;226.0;-0.2721;0.1549;109.0;117.0;-0.1594;-0.5043;0.9807;-0.3796;-0.2612;0.325;0.46;0.485;0.505;0.82;0.0
143.0;1.0142;141.0;1.0292;137.0;1.0379;132.0;1.0233;157.0;1.0195;154.0;1.0476;147.0;0.9608;153.0;0.9684;214.0;0.4901;0.2666;105.0;109.0;0.5304;0.2536;2.4024;0.0694;0.6238;0.335;0.465;0.495;0.52;0.765;0.0
133.0;0.9708;137.0;1.0148;135.0;0.9712;139.0;0.9586;131.0;0.9632;136.0;0.9855;138.0;1.0;138.0;0.9857;179.0;0.044;0.2995;88.0;91.0;0.0457;-0.2104;1.3972;-0.3765;0.5472;0.335;0.44;0.495;0.52;0.74;0.0
145.0;1.0211;142.0;0.9726;146.0;0.9799;149.0;1.0136;148.0;0.9801;151.0;1.0067;150.0;1.0417;144.0;1.036;201.0;-0.2228;0.2511;98.0;103.0;-0.0857;-0.2909;1.2167;-0.4878;-0.2245;0.33;0.45;0.49;0.565;0.735;0.0
166.0;1.0375;160.0;0.9756;164.0;2.0759;79.0;0.2873;156.0;1.5918;98.0;0.4118;238.0;1.3918;171.0;1.71;217.0;-0.1856;0.4025;108.0;109.0;0.4736;-0.2027;2.1645;-0.3793;0.2607;0.47;0.435;0.5;0.59;0.525;0.0
164.0;0.9704;169.0;0.9713;174.0;0.956;182.0;1.0225;173.0;1.0422;166.0;1.0311;161.0;1.0592;152.0;0.9682;244.0;-0.2593;0.3968;123.0;121.0;-0.2064;-0.2586;2.0532;-0.4971;0.2096;0.36;0.465;0.51;0.595;0.535;0.0
175.0;1.0234;171.0;1.0556;162.0;1.0;162.0;0.9364;160.0;0.9639;166.0;0.994;167.0;1.0373;161.0;1.0255;225.0;-0.2242;0.2863;113.0;112.0;-0.2258;-0.5533;1.9068;-0.4263;-0.1897;0.365;0.48;0.505;0.53;0.685;0.0
179.0;0.9835;182.0;0.9785;186.0;1.0109;184.0;1.011;177.0;1.0114;175.0;1.0479;167.0;1.0121;165.0;0.9429;251.0;-0.2192;0.2662;128.0;123.0;-0.2617;-0.5219;1.7046;-0.4557;-0.0538;0.34;0.485;0.51;0.535;0.7;0.0
161.0;1.0;161.0;1.019;158.0;1.0533;150.0;0.9317;157.0;0.9937;158.0;0.9576;165.0;0.994;166.0;0.9822;219.0;-0.2045;0.1506;110.0;109.0;-0.0803;-0.3587;1.0625;-0.2737;-0.1807;0.385;0.485;0.505;0.525;0.845;0.0
136.0;0.9315;146.0;0.9669;151.0;0.9264;163.0;0.976;147.0;0.9188;160.0;1.0;160.0;1.4545;110.0;0.5556;203.0;-0.066;0.4066;101.0;102.0;0.2872;-0.1142;2.0831;-0.345;0.2255;0.45;0.4;0.505;0.615;0.53;0.0
211.0;1.4859;142.0;1.0143;140.0;1.0219;137.0;0.9448;139.0;0.9789;142.0;1.0071;141.0;0.986;143.0;0.9728;195.0;-0.2339;0.2535;98.0;97.0;-0.0749;-0.2966;1.2165;-0.4862;-0.1402;0.35;0.465;0.5;0.58;0.775;0.0
128.0;0.9624;133.0;0.9301;143.0;1.0438;137.0;1.0148;138.0;1.0;138.0;0.9857;140.0;0.9722;144.0;1.0213;187.0;-0.1013;0.289;91.0;96.0;-0.0117;-0.2781;1.3181;-0.532;0.2867;0.335;0.455;0.495;0.52;0.725;0.0
108.0;0.9474;114.0;0.9913;115.0;1.0455;110.0;0.9821;109.0;0.9646;113.0;0.5113;221.0;1.0184;217.0;1.887;153.0;-0.1893;0.5;77.0;76.0;-0.138;-0.4902;2.1215;-1.1802;0.3236;0.315;0.46;0.51;0.55;0.845;0.0
165.0;0.988;167.0;1.0183;164.0;1.038;158.0;1.0064;162.0;1.0062;161.0;1.0255;157.0;0.9632;163.0;0.9702;227.0;-0.3223;0.1459;114.0;113.0;-0.1776;-0.5184;0.8938;-0.4269;-0.3052;0.38;0.485;0.505;0.525;0.815;0.0
169.0;0.9602;176.0;0.9778;180.0;0.973;185.0;1.0571;186.0;1.0109;184.0;1.0395;177.0;0.962;184.0;1.0055;259.0;-0.159;0.2674;129.0;130.0;-0.1892;-0.4692;1.9179;-0.3377;-0.0351;0.39;0.475;0.5;0.52;0.67;0.0
136.0;1.0074;135.0;0.9643;140.0;0.9929;141.0;1.0217;136.0;0.9927;137.0;0.9856;139.0;0.9521;146.0;0.9932;227.0;-0.2317;0.2348;132.0;95.0;-0.0963;-0.3134;1.234;-0.5054;-0.1272;0.46;0.55;0.58;0.645;0.79;0.0
160.0;1.0127;158.0;1.0128;156.0;1.3;120.0;0.678;151.0;0.9934;152.0;0.95;160.0;0.9524;168.0;1.0566;219.0;-0.405;0.1652;114.0;105.0;-0.3109;-0.641;0.9089;-0.5547;-0.3339;0.395;0.495;0.52;0.545;0.885;0.0
110.0;0.9735;113.0;1.13;100.0;1.0526;95.0;0.3992;97.0;0.7405;131.0;0.5796;226.0;1.0367;218.0;1.964;219.0;0.068;0.8263;152.0;67.0;1.7864;-0.3614;2.89;-0.8039;-0.8039;0.175;0.14;0.205;0.24;0.24;0.0
140.0;0.9929;141.0;0.9792;144.0;0.9351;154.0;1.0065;148.0;0.9867;150.0;1.0;150.0;0.974;154.0;1.0199;204.0;-0.2653;0.2622;101.0;103.0;-0.1109;-0.3802;1.2095;-0.5364;0.1946;0.345;0.465;0.495;0.57;0.525;0.0
172.0;1.0;172.0;1.0058;171.0;0.9344;183.0;1.0223;170.0;0.9341;182.0;1.046;174.0;1.0675;163.0;0.9588;234.0;-0.3229;0.2417;116.0;118.0;-0.3726;-0.6002;1.4712;-0.6428;-0.2242;0.325;0.475;0.5;0.52;0.675;0.0
184.0;0.9946;185.0;1.0511;176.0;0.9832;179.0;0.9835;180.0;0.9677;186.0;1.0276;181.0;1.0056;180.0;0.9945;247.0;-0.2584;0.2442;122.0;125.0;-0.2744;-0.4902;1.6416;-0.6261;-0.2049;0.345;0.475;0.495;0.515;0.655;0.0
130.0;0.9774;133.0;0.9852;135.0;0.9643;140.0;0.9859;135.0;1.0075;134.0;0.964;139.0;0.9456;147.0;1.0208;189.0;0.2335;0.2807;95.0;94.0;0.334;0.0325;1.57;-0.2317;0.5811;0.355;0.47;0.51;0.53;0.72;0.0
166.0;0.994;167.0;1.006;166.0;0.9765;170.0;0.9341;161.0;0.9641;167.0;1.057;158.0;1.0604;149.0;1.0276;229.0;-0.3313;0.2469;117.0;112.0;-0.3343;-0.5842;1.4129;-0.6717;-0.1957;0.36;0.485;0.515;0.535;0.715;0.0
108.0;0.931;116.0;1.0741;108.0;0.9474;114.0;1.0459;232.0;2.1091;110.0;0.9821;112.0;1.0;112.0;1.0467;240.0;-0.0544;0.7277;78.0;162.0;0.4209;-0.4178;2.8437;-0.6871;-0.6871;0.52;0.765;0.815;0.85;0.85;0.0
109.0;0.9909;110.0;1.028;107.0;0.9554;112.0;1.0566;112.0;1.0275;109.0;1.0187;107.0;0.9554;112.0;0.9912;154.0;-0.1993;0.4869;76.0;78.0;-0.1288;-0.4942;2.1042;-1.1214;0.2423;0.32;0.45;0.495;0.54;0.82;0.0
141.0;1.0144;139.0;0.9789;142.0;0.9595;148.0;1.0068;140.0;1.0;140.0;0.9524;147.0;0.9671;152.0;1.0411;192.0;-0.3103;0.2336;94.0;98.0;-0.1614;-0.3824;1.1471;-0.5672;-0.2601;0.34;0.46;0.495;0.575;0.765;0.0
148.0;1.0068;147.0;0.9735;151.0;1.0134;149.0;1.042;151.0;1.0272;147.0;1.0352;142.0;1.0071;141.0;1.0292;212.0;-0.2176;0.2794;107.0;105.0;-0.2527;-0.2527;1.3067;-0.4444;-0.1706;0.455;0.465;0.505;0.575;0.82;0.0
143.0;1.0142;141.0;0.9792;144.0;1.007;143.0;0.9662;141.0;1.0;141.0;0.94;150.0;0.9868;152.0;1.0133;196.0;-0.2238;0.2951;98.0;98.0;-0.0562;-0.6712;1.2294;-0.4414;-0.1036;0.265;0.425;0.505;0.58;0.855;0.0
182.0;1.0898;167.0;1.006;166.0;0.9486;175.0;0.9615;169.0;0.9494;178.0;1.0;178.0;1.0533;169.0;1.006;233.0;-0.329;0.2248;115.0;118.0;-0.3687;-0.5867;1.2533;-0.6561;-0.3022;0.34;0.475;0.5;0.52;0.67;0.0
149.0;0.9613;155.0;0.9873;157.0;1.0;157.0;0.9181;165.0;0.9706;170.0;0.9827;173.0;2.0116;86.0;0.3554;231.0;-0.1464;0.3698;116.0;115.0;-0.0594;-0.1535;1.8963;-0.3639;0.3531;0.35;0.46;0.51;0.605;0.535;0.0
153.0;0.9808;156.0;0.9873;158.0;1.0128;156.0;1.0759;150.0;1.0345;145.0;0.9864;147.0;1.028;143.0;1.0214;214.0;-0.3214;0.1521;109.0;105.0;-0.217;-0.535;0.9061;-0.4228;-0.256;0.385;0.49;0.515;0.535;0.845;0.0
164.0;0.9535;172.0;1.0178;169.0;1.0629;159.0;1.0192;165.0;1.0377;159.0;1.0325;154.0;0.9809;157.0;0.9691;229.0;-0.3596;0.1709;114.0;115.0;-0.2387;-0.604;1.0086;-0.4878;-0.3046;0.385;0.48;0.5;0.52;0.83;0.0
169.0;1.006;168.0;1.0633;158.0;1.0;158.0;0.9693;157.0;1.0064;156.0;1.0;156.0;0.9341;167.0;1.0183;227.0;-0.2552;0.1425;118.0;109.0;-0.1418;-0.492;0.9678;-0.3397;-0.2157;0.395;0.495;0.52;0.54;0.855;0.0
107.0;0.535;200.0;1.3158;152.0;1.0935;139.0;1.0451;138.0;1.0299;134.0;1.4105;95.0;0.5163;184.0;1.3529;201.0;-0.3824;0.4115;105.0;96.0;-0.3114;-0.4284;1.8437;-0.6023;-0.1913;0.365;0.47;0.525;0.625;0.56;0.0
170.0;1.0366;164.0;0.9939;165.0;0.994;166.0;0.9379;180.0;0.9474;190.0;1.044;182.0;1.0168;179.0;1.0;244.0;-0.2453;0.2405;119.0;125.0;-0.2314;-0.5002;1.5357;-0.4972;-0.0592;0.345;0.465;0.49;0.515;0.68;0.0
142.0;1.0071;141.0;1.0368;136.0;1.0382;131.0;0.9493;147.0;1.0138;145.0;0.9797;148.0;1.0068;147.0;0.9423;203.0;-0.3454;0.1531;101.0;102.0;-0.2113;-0.5756;0.8654;-0.5224;-0.2984;0.365;0.475;0.5;0.52;0.855;0.0
157.0;1.0;157.0;0.9345;168.0;1.0244;164.0;1.0513;162.0;1.0318;157.0;1.0;157.0;1.0828;145.0;0.9667;219.0;-0.3114;0.1936;106.0;113.0;-0.2212;-0.5455;1.1385;-0.4903;-0.2854;0.315;0.46;0.485;0.51;0.86;0.0
167.0;0.9766;171.0;0.9553;179.0;1.0529;170.0;1.0366;179.0;1.0655;168.0;0.9882;170.0;0.9942;171.0;0.95;250.0;-0.2212;0.2728;125.0;125.0;-0.2494;-0.583;1.8168;-0.4037;0.0292;0.385;0.475;0.5;0.525;0.715;0.0
169.0;0.9826;172.0;0.9663;178.0;0.9834;181.0;1.0226;178.0;1.0171;175.0;1.0116;173.0;0.9774;177.0;1.0599;242.0;-0.3597;0.2679;118.0;124.0;-0.4075;-0.6412;1.5874;-0.6687;-0.2511;0.37;0.465;0.49;0.51;0.68;0.0
177.0;1.0;177.0;1.0473;169.0;0.9657;175.0;0.9459;172.0;0.9247;186.0;1.0508;177.0;1.0231;173.0;1.0237;238.0;-0.1644;0.2474;118.0;120.0;-0.1955;-0.3868;1.6448;-0.5191;0.0682;0.39;0.475;0.495;0.515;0.68;0.0
112.0;1.0667;105.0;0.4773;220.0;1.0;220.0;1.0233;221.0;0.9866;224.0;2.0935;107.0;1.019;105.0;0.9545;308.0;-0.3721;0.6508;154.0;154.0;-0.3792;-0.4789;2.5697;-0.7056;-0.7056;0.1;0.12;0.145;0.17;0.17;0.0
140.0;1.0072;139.0;0.9653;144.0;0.9796;147.0;0.9671;87.0;0.4328;201.0;1.3581;148.0;1.0;148.0;1.0068;160.0;-0.2786;0.2758;100.0;60.0;-0.1388;-0.3715;1.1553;-0.5359;-0.3047;0.43;0.57;0.625;0.715;0.925;0.0
166.0;0.9651;172.0;0.9609;179.0;0.989;181.0;1.0647;180.0;1.0286;175.0;1.0355;169.0;0.9602;176.0;1.0414;250.0;-0.2237;0.2533;125.0;125.0;-0.2785;-0.441;1.5775;-0.4623;-0.0805;0.385;0.48;0.5;0.525;0.7;0.0
149.0;0.9551;156.0;1.4444;108.0;0.5654;191.0;1.4044;163.0;1.094;149.0;1.042;143.0;1.007;142.0;0.9161;227.0;-0.0703;0.3365;113.0;114.0;0.0062;-0.1041;1.9115;-0.2526;0.2971;0.355;0.455;0.505;0.59;0.535;0.0
164.0;1.0061;163.0;0.9532;171.0;1.0059;170.0;1.0625;161.0;0.9583;168.0;1.05;160.0;1.0191;157.0;1.0129;227.0;-0.423;0.159;115.0;112.0;-0.3187;-0.6982;0.7935;-0.5183;-0.4126;0.39;0.485;0.51;0.535;0.86;0.0
153.0;1.0;153.0;1.4434;106.0;0.493;215.0;1.5468;162.0;1.0318;157.0;1.0;157.0;1.0129;155.0;0.981;225.0;-0.1018;0.367;112.0;113.0;0.5096;-0.1126;1.904;-0.3258;0.4096;0.475;0.445;0.505;0.615;0.535;0.0
172.0;2.0723;83.0;0.3444;241.0;1.4695;164.0;0.9213;146.0;0.9733;150.0;1.3274;113.0;0.4748;238.0;1.3446;205.0;-0.0982;0.4035;103.0;102.0;-0.0634;-0.1325;2.3027;0.2086;0.2086;0.345;0.455;0.51;0.54;0.54;0.0
123.0;1.0789;114.0;1.0459;109.0;0.9561;114.0;1.027;118.0;1.0826;109.0;0.9646;113.0;1.0;113.0;1.0089;162.0;-0.0164;0.5255;80.0;82.0;0.1205;-0.3275;2.1541;-0.9716;0.3007;0.32;0.46;0.5;0.545;0.84;0.0
135.0;1.0305;131.0;1.0077;130.0;1.04;125.0;1.0081;139.0;1.0692;130.0;1.04;125.0;0.9843;127.0;0.9769;191.0;-0.0597;0.2845;94.0;97.0;0.0772;-0.2713;1.2274;-0.5651;0.2083;0.335;0.45;0.5;0.52;0.715;0.0
144.0;0.9474;152.0;1.0133;150.0;1.0;150.0;1.0;156.0;0.9811;159.0;0.9876;161.0;1.0255;157.0;1.0397;218.0;-0.3174;0.1569;109.0;109.0;-0.2027;-0.5935;0.9523;-0.4268;-0.2475;0.375;0.475;0.5;0.525;0.845;0.0
112.0;0.5333;210.0;1.2805;164.0;1.0123;162.0;0.9939;165.0;0.9593;172.0;1.0617;162.0;1.0253;158.0;1.0;236.0;-0.2451;0.3892;121.0;115.0;-0.1798;-0.2902;1.9382;-0.4691;-0.1096;0.35;0.47;0.515;0.61;0.57;0.0
168.0;0.9492;177.0;1.0412;170.0;0.9827;173.0;0.9665;178.0;0.9519;187.0;1.0108;185.0;1.0221;181.0;1.0904;248.0;-0.1513;0.2542;124.0;124.0;-0.1802;-0.436;1.7674;-0.3154;-0.0573;0.385;0.475;0.5;0.525;0.675;0.0
111.0;1.0091;110.0;1.0;110.0;0.9821;112.0;0.5283;108.0;0.973;111.0;1.1562;96.0;0.7559;127.0;1.1759;154.0;-0.3431;0.5238;79.0;75.0;-0.2389;-0.4939;2.0918;-1.2388;0.1815;0.315;0.475;0.515;0.555;0.875;0.0
133.0;1.0391;128.0;0.9697;132.0;0.9706;136.0;1.0709;134.0;1.0388;129.0;0.9773;132.0;0.9429;140.0;0.9859;189.0;0.2212;0.237;96.0;93.0;0.4778;0.1157;1.7845;0.0958;0.3375;0.365;0.475;0.51;0.535;0.71;0.0
137.0;1.0074;136.0;1.0149;134.0;0.9853;136.0;0.9577;125.0;0.9398;133.0;0.9433;141.0;1.0368;136.0;0.9645;176.0;-0.2311;0.2862;89.0;87.0;-0.2098;-0.44;1.1074;-0.6643;0.1379;0.345;0.465;0.51;0.535;0.74;0.0
173.0;1.0;173.0;1.0745;161.0;1.019;158.0;0.9937;160.0;0.9877;162.0;1.0125;160.0;0.9143;175.0;1.0294;228.0;-0.1637;0.2789;116.0;112.0;-0.1397;-0.4826;1.8561;-0.354;-0.0865;0.365;0.485;0.51;0.535;0.695;0.0
168.0;0.9882;170.0;1.0303;165.0;0.9821;168.0;1.0182;163.0;1.0516;155.0;0.9688;160.0;1.0;160.0;1.0811;233.0;-0.2293;0.1639;119.0;114.0;-0.1184;-0.4435;1.1054;-0.3036;-0.2249;0.345;0.49;0.515;0.535;0.875;0.0
171.0;1.0427;164.0;0.9704;169.0;0.9389;180.0;1.0;181.0;0.9784;185.0;1.0452;177.0;1.0473;169.0;0.9713;244.0;-0.2216;0.264;118.0;126.0;-0.2627;-0.4657;1.8096;-0.4631;-0.1085;0.375;0.465;0.485;0.505;0.665;0.0
155.0;1.0;155.0;0.9873;157.0;0.9812;160.0;0.9816;152.0;0.9268;164.0;0.9591;171.0;1.0179;168.0;1.0909;213.0;-0.3141;0.1759;107.0;106.0;-0.2072;-0.5095;1.0672;-0.4164;-0.267;0.385;;0.505;0.53;0.87;0.0
146.0;1.0504;139.0;0.9929;140.0;1.0219;137.0;0.9648;141.0;1.0444;135.0;0.9712;139.0;0.9789;142.0;0.9726;201.0;-0.241;0.2174;103.0;98.0;-0.1058;-0.3303;1.1313;-0.4856;-0.2486;0.36;0.455;0.515;0.58;0.755;0.0
107.0;0.9554;112.0;0.9912;113.0;1.4487;78.0;1.0833;226.0;2.0926;108.0;0.9818;110.0;1.028;107.0;0.9554;312.0;0.0066;0.6858;154.0;158.0;1.9;-0.2782;2.6208;-0.9498;-0.5155;0.49;0.805;0.845;0.93;0.975;0.0
146.0;0.9932;147.0;1.0068;146.0;1.0355;141.0;1.0071;148.0;1.0;148.0;1.0496;141.0;1.0144;139.0;1.0221;206.0;-0.25;0.2466;103.0;103.0;-0.1197;-0.3602;1.1964;-0.5026;-0.2182;0.345;0.465;0.5;0.575;0.82;0.0
146.0;1.0;146.0;1.0355;141.0;1.0144;139.0;0.9789;144.0;1.0435;138.0;1.0;138.0;0.9928;139.0;0.9392;204.0;-0.1793;0.2538;104.0;100.0;-0.0155;-0.2832;1.2579;-0.4696;-0.1896;0.355;0.475;0.51;0.575;0.755;0.0
156.0;0.9873;158.0;0.9576;165.0;1.0123;163.0;1.0654;152.0;0.9806;155.0;1.0616;146.0;1.0657;137.0;1.0301;215.0;-0.32;0.3246;109.0;106.0;-0.2482;-0.3378;1.5809;-0.0636;-0.0636;0.335;0.465;0.51;0.545;0.545;0.0
190.0;1.2667;150.0;1.0274;146.0;0.9865;148.0;1.035;150.0;1.0067;149.0;1.0205;146.0;1.021;143.0;1.0593;207.0;-0.3143;0.2626;102.0;105.0;-0.2039;-0.3886;1.1824;-0.5914;-0.3144;0.335;0.46;0.495;0.57;0.735;0.0
201.0;1.1356;177.0;1.0599;167.0;1.0438;160.0;0.9816;166.0;1.0573;157.0;1.0;157.0;0.9874;159.0;0.9353;234.0;-0.3011;0.1583;118.0;116.0;-0.1869;-0.5178;0.9875;-0.4404;-0.2715;0.35;0.485;0.505;0.525;0.87;0.0
156.0;0.9176;170.0;1.0494;162.0;1.0318;157.0;1.0261;166.0;1.071;155.0;1.0065;154.0;1.0065;153.0;0.9745;230.0;-0.3159;0.1703;114.0;116.0;-0.1971;-0.5364;1.0788;-0.4238;-0.2914;0.375;0.475;0.495;0.515;0.795;0.0
170.0;0.9605;177.0;0.9779;181.0;0.9891;183.0;0.9734;179.0;0.9944;180.0;1.0169;177.0;1.0727;165.0;0.9763;249.0;-0.1649;0.2732;124.0;125.0;-0.1969;-0.4045;1.8787;-0.4325;0.0082;0.39;0.48;0.5;0.52;0.69;0.0
161.0;0.9253;174.0;0.9943;175.0;1.0174;172.0;0.9885;177.0;0.9888;179.0;1.0529;170.0;1.018;167.0;1.0309;248.0;-0.1837;0.2506;125.0;123.0;-0.2325;-0.4782;1.688;-0.3765;-0.0698;0.33;0.48;0.505;0.53;0.69;0.0
167.0;1.0373;161.0;1.0255;157.0;1.0195;154.0;0.9747;185.0;1.0054;184.0;1.0166;181.0;1.0112;179.0;0.9179;257.0;-0.2262;0.2553;128.0;129.0;-0.2342;-0.4591;1.7147;-0.386;-0.0505;0.39;0.48;0.505;0.525;0.67;0.0
167.0;0.994;168.0;1.006;167.0;0.9543;175.0;0.9887;166.0;0.9881;168.0;1.0;168.0;1.012;166.0;1.0;230.0;-0.1891;0.2624;114.0;116.0;-0.2262;-0.4649;1.7176;-0.4056;-0.1165;0.38;0.475;0.5;0.52;0.675;0.0
141.0;0.9724;145.0;0.9932;146.0;1.6222;90.0;0.4327;142.0;0.9342;152.0;1.0066;151.0;1.0203;148.0;1.0207;197.0;-0.272;0.2686;98.0;99.0;-0.14;-0.3455;1.2212;-0.5507;-0.2386;0.33;0.46;0.495;0.575;0.75;0.0
155.0;0.9451;164.0;0.988;166.0;0.9708;171.0;1.0491;169.0;1.4202;119.0;0.595;200.0;1.2658;158.0;0.9937;240.0;-0.3388;0.1618;122.0;118.0;-0.282;-0.5562;0.9292;-0.5195;-0.2737;0.39;0.485;0.51;0.53;0.83;0.0
163.0;1.0795;151.0;0.9934;152.0;0.95;160.0;0.9524;148.0;1.0423;142.0;0.9793;145.0;0.9603;151.0;1.0634;206.0;-0.2711;0.1744;103.0;103.0;-0.095;-0.5147;0.9222;-0.42;-0.3278;0.35;0.475;0.5;0.52;0.87;0.0
165.0;1.0577;156.0;0.9689;161.0;1.0126;159.0;0.9695;160.0;0.9581;167.0;0.9766;171.0;1.024;167.0;0.9824;221.0;-0.2892;0.1556;109.0;112.0;-0.163;-0.4961;0.976;-0.4545;-0.2539;0.38;0.475;0.495;0.515;0.82;0.0
175.0;0.9615;182.0;1.0581;172.0;1.0552;163.0;0.9939;163.0;1.0124;161.0;1.0;161.0;0.9527;169.0;0.9826;233.0;-0.1925;0.2806;119.0;114.0;-0.1883;-0.4973;1.8074;-0.4282;0.0133;0.365;0.49;0.515;0.535;0.715;0.0
225.0;1.0321;218.0;0.9909;220.0;1.0185;216.0;1.8947;220.0;2.1154;104.0;0.9204;113.0;1.1649;97.0;0.8083;311.0;-0.1552;0.7371;157.0;154.0;2.2585;-0.411;2.9875;-0.9911;-0.6021;0.505;0.825;0.855;0.95;0.885;0.0
158.0;0.9875;160.0;1.0323;155.0;0.9688;160.0;0.9302;164.0;1.0;164.0;0.9704;169.0;0.9826;172.0;1.0617;226.0;-0.2561;0.1643;112.0;114.0;-0.1251;-0.4793;1.0977;-0.3093;-0.2567;0.37;0.475;0.5;0.52;0.835;0.0
160.0;0.9697;165.0;1.0061;164.0;0.9939;165.0;1.0248;180.0;1.0778;167.0;1.7957;93.0;0.3536;263.0;1.5202;257.0;-0.1554;0.3828;132.0;125.0;-0.0961;-0.1414;2.1627;-0.3758;0.437;0.37;0.47;0.515;0.61;0.54;0.0
160.0;0.9467;169.0;0.9826;172.0;1.0299;167.0;1.0245;169.0;1.2519;135.0;0.7105;190.0;1.2025;158.0;1.0064;234.0;-0.2586;0.176;116.0;118.0;-0.1346;-0.5061;1.2024;-0.3492;-0.2283;0.385;0.475;0.5;0.52;0.82;0.0
111.0;1.0183;109.0;0.982;111.0;0.9487;117.0;1.3929;113.0;1.018;111.0;0.9487;117.0;1.0734;109.0;0.9909;154.0;-0.0394;0.5038;75.0;79.0;-0.0354;-0.3634;2.3634;-0.876;0.322;0.295;0.45;0.49;0.535;0.86;0.0
153.0;1.0066;152.0;1.0935;139.0;0.7809;178.0;1.0659;151.0;0.9742;155.0;1.0065;154.0;0.9935;155.0;1.0544;209.0;-0.5037;0.1279;104.0;105.0;-0.3932;-0.742;0.4934;-0.6158;-0.4593;0.365;0.475;0.5;0.52;0.84;0.0
155.0;1.0473;148.0;1.0137;146.0;0.9733;150.0;1.3274;169.0;1.9425;87.0;0.3439;253.0;1.3901;182.0;1.1166;229.0;-0.1694;0.3148;111.0;118.0;0.3791;-0.1892;1.857;0.0238;0.1095;0.465;0.44;0.49;0.515;0.52;0.0
129.0;0.5945;217.0;1.9727;110.0;1.0;110.0;0.9649;215.0;2.1078;102.0;0.8361;122.0;1.1296;108.0;1.0093;227.0;-0.2396;0.6175;77.0;150.0;0.164;-0.5925;2.3317;-0.7689;-0.4937;0.555;0.785;0.82;0.85;0.99;0.0
160.0;0.9524;168.0;1.0566;159.0;0.9353;170.0;1.0366;151.0;1.0634;142.0;1.0;142.0;1.0071;141.0;1.0368;206.0;-0.4536;0.1677;101.0;105.0;-0.3043;-0.6539;0.7996;-0.599;-0.438;0.35;0.47;0.495;0.515;0.83;0.0
170.0;0.9497;179.0;2.2375;80.0;0.303;264.0;1.5714;163.0;1.0316;158.0;1.0;158.0;1.0327;153.0;1.0132;232.0;-0.139;0.4113;118.0;114.0;-0.0561;-0.1458;2.0369;-0.383;0.5004;0.355;0.465;0.51;0.62;0.54;0.0
135.0;1.1842;114.0;0.9913;115.0;1.0268;112.0;1.0182;111.0;0.9737;114.0;1.0962;104.0;0.9369;111.0;0.9737;156.0;0.2544;0.4782;79.0;77.0;0.3044;-0.1484;2.2679;-0.6089;0.8501;0.32;0.465;0.505;0.555;0.835;0.0
162.0;0.9939;163.0;0.9819;166.0;1.0375;160.0;1.0;167.0;1.0373;161.0;1.0255;157.0;1.0064;156.0;0.9936;231.0;-0.3363;0.1422;115.0;116.0;-0.2263;-0.5153;0.8258;-0.4784;-0.3068;0.33;0.48;0.5;0.52;0.875;0.0
174.0;1.0116;172.0;1.0178;169.0;1.0305;164.0;0.948;165.0;0.9706;170.0;0.914;186.0;1.0568;176.0;1.0233;236.0;-0.1335;0.2496;121.0;115.0;-0.1762;-0.4471;1.7641;-0.4099;-0.0675;0.4;0.49;0.515;0.535;0.86;0.0
110.0;1.0092;109.0;0.9646;113.0;1.13;100.0;0.8475;222.0;2.0748;107.0;0.9727;110.0;0.5069;217.0;0.9775;309.0;-0.2702;0.6967;154.0;155.0;1.9273;-0.3372;2.4769;-1.0926;-1.0044;0.13;0.105;0.14;0.225;0.2;0.0
113.0;1.0367;109.0;1.1474;95.0;0.754;126.0;0.5727;218.0;2.3956;91.0;0.7165;127.0;1.1545;110.0;1.028;312.0;-0.1664;0.8578;160.0;152.0;1.925;-0.2707;2.8408;-0.5827;-0.5441;0.51;0.82;0.855;0.885;0.99;0.0
137.0;0.958;143.0;0.9597;149.0;1.0068;148.0;1.7412;147.0;1.0068;146.0;1.0;146.0;1.0069;145.0;1.0211;202.0;-0.2175;0.2715;100.0;102.0;-0.1017;-0.2957;1.294;-0.4902;-0.1399;0.335;0.46;0.495;0.575;0.795;0.0
163.0;0.9939;164.0;1.0649;154.0;0.9747;158.0;0.9875;167.0;1.0309;162.0;1.0385;156.0;1.2188;128.0;0.7273;234.0;-0.2787;0.1448;118.0;116.0;-0.1725;-0.4908;0.8704;-0.4264;-0.2473;0.335;0.48;0.505;0.525;0.825;0.0
165.0;0.9821;168.0;0.9825;171.0;0.9607;178.0;0.9944;177.0;0.9944;178.0;1.0171;175.0;1.0057;174.0;1.0419;248.0;-0.2395;0.2545;125.0;123.0;-0.2569;-0.5189;1.7312;-0.5065;-0.1487;0.39;0.485;0.505;0.525;0.68;0.0
140.0;0.9859;142.0;0.9793;145.0;0.9539;152.0;0.9682;140.0;0.9396;149.0;0.9739;153.0;1.0;153.0;1.0;198.0;-0.2497;0.2619;100.0;98.0;-0.0999;-0.3201;1.267;-0.5043;-0.2308;0.34;0.47;0.505;0.575;0.81;0.0
195.0;1.242;157.0;1.0064;156.0;1.0196;153.0;1.0132;168.0;1.6634;101.0;0.443;228.0;1.5302;149.0;1.0;222.0;-0.1362;0.3856;105.0;117.0;-0.0804;-0.1774;2.146;0.1736;0.1736;0.31;0.415;0.475;0.505;0.505;0.0
146.0;1.0355;141.0;1.0144;139.0;1.0072;138.0;0.9517;141.0;0.9792;144.0;1.007;143.0;1.0;143.0;0.9533;193.0;-0.1743;0.2653;95.0;98.0;-0.0067;-0.2205;1.2841;-0.4044;-0.1654;0.33;0.455;0.49;0.565;0.805;0.0
144.0;0.96;150.0;0.9804;153.0;1.0552;145.0;1.014;148.0;1.0137;146.0;1.0069;145.0;1.0284;141.0;1.0144;204.0;-0.1642;0.2711;101.0;103.0;-0.0932;-0.2212;1.2977;-0.4531;-0.2176;0.335;0.455;0.495;0.57;0.85;0.0
124.0;1.0;124.0;1.0;124.0;1.0081;123.0;0.9762;138.0;1.0455;132.0;1.0476;126.0;1.008;125.0;1.0246;190.0;-0.1317;0.2929;94.0;96.0;-0.1315;-0.3335;1.1808;-0.577;0.2638;0.32;0.46;0.5;0.525;0.735;0.0
146.0;0.9799;149.0;1.0493;142.0;0.9342;152.0;1.0483;157.0;0.9874;159.0;1.0392;153.0;1.0268;149.0;1.0068;218.0;-0.2713;0.1984;109.0;109.0;-0.1533;-0.5071;1.1037;-0.4157;-0.254;0.36;0.47;0.505;0.525;0.86;0.0
159.0;0.9353;170.0;0.977;174.0;1.061;164.0;0.9762;170.0;1.0119;168.0;1.05;160.0;0.9877;162.0;1.0062;236.0;-0.3145;0.1804;118.0;118.0;-0.1991;-0.5336;1.0995;-0.4113;-0.2728;0.375;0.475;0.5;0.52;0.855;0.0
148.0;1.0137;146.0;0.9733;150.0;1.3274;113.0;0.4748;87.0;0.3439;253.0;1.3901;182.0;1.1166;163.0;1.1241;178.0;-0.1388;0.3683;118.0;60.0;-0.0977;-0.1812;1.8364;-0.3256;0.2103;0.465;0.595;0.67;0.78;0.71;0.0
163.0;1.0382;157.0;1.0261;153.0;0.9562;160.0;0.9816;150.0;0.9317;161.0;0.9583;168.0;1.006;167.0;1.0183;215.0;-0.2989;0.1577;110.0;105.0;-0.1605;-0.5138;0.9015;-0.3674;-0.3061;0.385;0.48;0.515;0.535;0.83;0.0
151.0;0.9152;165.0;0.988;167.0;0.9766;171.0;0.9396;188.0;1.033;182.0;1.0;182.0;1.103;165.0;1.0312;258.0;-0.3482;0.3567;127.0;131.0;-0.331;-0.3955;1.8283;0.0834;0.0834;0.33;0.44;0.495;0.52;0.52;0.0
137.0;0.9648;142.0;0.9595;148.0;1.0;148.0;1.0;147.0;1.0;147.0;1.0;147.0;1.0352;142.0;1.0;202.0;-0.2621;0.2624;100.0;102.0;-0.0808;-0.3434;1.2517;-0.5282;-0.2312;0.345;0.46;0.495;0.57;0.805;0.0
202.0;1.3741;147.0;1.0426;141.0;1.0217;138.0;0.9857;146.0;1.0139;144.0;1.036;139.0;0.9929;140.0;0.9929;202.0;-0.1914;0.2456;100.0;102.0;-0.1145;-0.287;1.2575;-0.4287;-0.1984;0.335;0.46;0.495;0.575;0.855;0.0
175.0;1.0057;174.0;1.0175;171.0;0.9942;172.0;0.9885;178.0;1.0471;170.0;1.018;167.0;1.0183;164.0;0.9762;246.0;-0.2076;0.2654;122.0;124.0;-0.2289;-0.5304;1.769;-0.4187;-0.1397;0.385;0.475;0.5;0.525;0.69;0.0
141.0;0.9592;147.0;0.9671;152.0;1.0133;150.0;1.0274;148.0;0.9867;150.0;1.0204;147.0;1.0138;145.0;1.0284;205.0;-0.2111;0.242;102.0;103.0;-0.0753;-0.2866;1.1777;-0.4765;-0.1972;0.345;0.465;0.5;0.565;0.825;0.0
142.0;0.9793;145.0;0.9603;151.0;1.0634;142.0;1.0;149.0;1.0493;142.0;0.9342;152.0;1.0483;145.0;0.9864;206.0;-0.3681;0.1664;102.0;104.0;-0.242;-0.5573;0.8896;-0.5168;-0.338;0.37;0.475;0.5;0.52;0.835;0.0
178.0;1.0171;175.0;1.0116;173.0;0.9774;177.0;1.0599;178.0;1.0289;173.0;1.0422;166.0;0.9651;172.0;0.9609;249.0;-0.0644;0.2635;125.0;124.0;-0.0776;-0.3474;1.9241;-0.298;0.1169;0.39;0.48;0.505;0.525;0.695;0.0
142.0;1.0216;139.0;0.972;143.0;1.007;142.0;0.953;141.0;1.0071;140.0;0.9589;146.0;0.9733;150.0;0.9934;198.0;-0.2404;0.2739;100.0;98.0;-0.0599;-0.3027;1.2291;-0.5386;-0.2558;0.35;0.47;0.505;0.575;0.815;0.0
163.0;1.0062;162.0;1.0;162.0;0.9529;170.0;1.0119;131.0;0.6616;198.0;1.1512;172.0;1.0617;162.0;1.0;207.0;-0.221;0.1668;116.0;91.0;-0.099;-0.4508;1.1089;-0.3569;-0.213;0.375;0.535;0.56;0.58;0.935;0.0
275.0;1.5537;177.0;1.1062;160.0;1.0127;158.0;0.9461;151.0;0.9869;153.0;1.4854;103.0;0.4187;246.0;1.4556;218.0;-0.2632;0.3683;113.0;105.0;0.1075;-0.272;1.8054;-0.4529;0.268;0.49;0.475;0.52;0.61;0.55;0.0
163.0;0.9939;164.0;0.9939;165.0;0.9821;168.0;1.0307;163.0;1.0124;161.0;1.0;161.0;1.019;158.0;1.0533;228.0;-0.2698;0.155;114.0;114.0;-0.1282;-0.4332;0.9562;-0.385;-0.2646;0.35;0.48;0.5;0.52;0.815;0.0
170.0;0.9942;171.0;1.0059;170.0;0.977;174.0;0.9886;183.0;1.0167;180.0;0.9677;186.0;1.0109;184.0;1.0824;247.0;-0.2137;0.2255;119.0;128.0;-0.2501;-0.4691;1.4096;-0.5209;-0.1116;0.32;0.46;0.485;0.51;0.665;0.0
161.0;1.0126;159.0;1.0063;158.0;0.9693;163.0;0.9939;160.0;0.9639;166.0;0.9708;171.0;1.024;167.0;1.0121;221.0;-0.2835;0.1985;109.0;112.0;-0.1749;-0.5362;1.2424;-0.3691;-0.2563;0.375;0.47;0.495;0.52;0.85;0.0
133.0;0.9779;136.0;1.0074;135.0;1.0;135.0;0.9783;129.0;0.9416;137.0;0.9856;139.0;1.0373;134.0;1.0152;181.0;-0.1908;0.2901;91.0;90.0;-0.0852;-0.4115;1.1155;-0.7712;0.1383;0.345;0.445;0.505;0.56;0.745;0.0
145.0;0.9732;149.0;1.5684;95.0;0.3992;238.0;1.5256;168.0;0.9711;173.0;1.0549;164.0;1.0581;155.0;1.0;226.0;-0.1913;0.4294;109.0;117.0;-0.1318;-0.2041;2.3252;-0.4075;-0.1121;0.345;0.445;0.485;0.595;0.535;0.0
93.0;0.4697;198.0;1.2375;160.0;1.4679;109.0;0.5477;144.0;1.2308;117.0;0.5021;233.0;1.6069;145.0;1.0;199.0;-0.2247;0.4097;99.0;100.0;-0.1123;-0.2361;1.9408;-0.4623;0.0398;0.325;0.445;0.5;0.62;0.545;0.0
109.0;0.9478;115.0;1.0088;114.0;1.0364;110.0;0.9821;111.0;0.9652;115.0;1.0748;107.0;0.9817;109.0;0.9909;152.0;-0.1335;0.5004;75.0;77.0;-0.1304;-0.4607;2.2957;-0.9645;0.3493;0.295;0.455;0.495;0.54;0.81;0.0
115.0;0.5959;193.0;1.1768;164.0;1.0;164.0;0.982;168.0;1.0;168.0;1.3125;128.0;0.6465;198.0;1.2222;229.0;-0.3372;0.1735;112.0;117.0;-0.2186;-0.5581;1.0178;-0.3965;-0.3236;0.37;0.47;0.495;0.515;0.835;0.0
159.0;0.9938;160.0;1.0127;158.0;1.0194;155.0;1.0265;148.0;1.0571;140.0;0.9929;141.0;0.993;142.0;0.9726;215.0;0.275;0.3121;112.0;103.0;0.5035;0.2483;2.1625;0.0513;0.5441;0.37;0.495;0.525;0.545;0.775;0.0
162.0;1.0;162.0;1.0385;156.0;0.9455;165.0;0.9483;162.0;0.9878;164.0;0.982;167.0;0.9824;170.0;1.0559;226.0;-0.2779;0.1474;113.0;113.0;-0.154;-0.4889;0.9571;-0.3282;-0.2663;0.38;0.48;0.505;0.525;0.83;0.0
217.0;2.0865;104.0;0.8814;118.0;1.2826;92.0;0.6917;215.0;0.9954;216.0;1.9817;109.0;0.9909;110.0;1.134;301.0;-0.4795;0.5991;151.0;150.0;1.6084;-0.682;2.0327;-0.8813;-0.2444;0.5;0.835;0.855;0.88;0.985;0.0
204.0;1.3421;152.0;1.027;148.0;1.0137;146.0;1.021;147.0;1.0208;144.0;1.0141;142.0;1.0143;140.0;0.9859;204.0;-0.2521;0.258;102.0;102.0;-0.1776;-0.308;1.1858;-0.4767;-0.1871;0.335;0.465;0.505;0.58;0.76;0.0
189.0;1.0216;185.0;1.0452;177.0;0.9725;182.0;0.9891;171.0;0.9553;179.0;1.0;179.0;0.989;181.0;1.0;234.0;-0.2438;0.2356;115.0;119.0;-0.2855;-0.5259;1.5154;-0.5202;-0.0366;0.345;0.47;0.495;0.515;0.685;0.0
164.0;1.0719;153.0;1.02;150.0;0.9259;162.0;1.0253;153.0;0.9871;155.0;0.9064;171.0;1.0301;166.0;1.0184;219.0;-0.3305;0.1512;112.0;107.0;-0.2073;-0.5523;0.8921;-0.42;-0.2994;0.39;0.49;0.51;0.53;0.805;0.0
110.0;0.991;111.0;0.9911;112.0;0.9739;115.0;1.055;115.0;1.0648;108.0;0.9558;113.0;1.0463;108.0;0.9908;155.0;-0.2022;0.4856;75.0;80.0;-0.1223;-0.46;2.0666;-1.1029;0.1364;0.3;0.435;0.49;0.535;0.86;0.0
143.0;1.0;143.0;0.9795;146.0;1.0;146.0;1.0282;148.0;1.0137;146.0;1.0429;140.0;1.0294;136.0;1.0074;207.0;-0.2191;0.2499;104.0;103.0;0.0407;-0.2747;1.177;-0.4945;-0.1346;0.355;0.47;0.505;0.58;0.805;0.0
176.0;0.9888;178.0;0.9944;179.0;1.0056;178.0;1.0659;174.0;1.0545;165.0;1.051;157.0;0.9632;163.0;0.9819;242.0;-0.1858;0.2582;121.0;121.0;-0.232;-0.5003;1.6481;-0.4052;0.0738;0.385;0.475;0.5;0.525;0.71;0.0
161.0;0.9817;164.0;0.982;167.0;0.9653;173.0;1.0422;168.0;1.0307;163.0;0.9939;164.0;1.038;158.0;1.0128;231.0;-0.2211;0.1598;114.0;117.0;-0.1178;-0.4549;1.0826;-0.2521;-0.1769;0.365;0.47;0.495;0.515;0.83;0.0
148.0;0.9933;149.0;0.9739;153.0;1.0408;147.0;1.0352;150.0;1.0345;145.0;0.9932;146.0;1.021;143.0;1.007;211.0;-0.3204;0.2617;106.0;105.0;-0.1813;-0.3884;1.1477;-0.5858;-0.3398;0.345;0.47;0.505;0.58;0.815;0.0
166.0;0.9595;173.0;0.9505;182.0;1.0111;180.0;0.9836;174.0;1.0058;173.0;1.0485;165.0;0.994;166.0;0.9595;246.0;-0.1864;0.2474;125.0;121.0;-0.2222;-0.4417;1.6772;-0.3903;-0.117;0.395;0.485;0.51;0.53;0.675;0.0
147.0;1.0352;142.0;0.9861;144.0;1.0511;137.0;0.9856;139.0;1.0146;137.0;0.9786;140.0;0.9859;142.0;0.966;197.0;-0.2953;0.2362;100.0;97.0;-0.139;-0.3591;1.1473;-0.5397;-0.2982;0.36;0.475;0.51;0.585;0.895;0.0
170.0;0.9827;173.0;1.0058;172.0;1.0238;168.0;0.9941;165.0;1.0;165.0;0.9593;172.0;0.9773;176.0;1.0292;229.0;-0.2463;0.2758;114.0;115.0;-0.2883;-0.5103;1.7578;-0.5202;-0.1027;0.38;0.475;0.5;0.52;0.69;0.0
162.0;1.0519;154.0;1.0065;153.0;0.9808;156.0;0.975;154.0;1.0132;152.0;0.9744;156.0;0.9176;170.0;1.0494;215.0;-0.2402;0.1706;108.0;107.0;-0.1232;-0.4725;1.1699;-0.3294;-0.1871;0.38;0.48;0.505;0.525;0.815;0.0
140.0;0.9396;149.0;0.9739;153.0;1.0338;148.0;1.035;148.0;0.9737;152.0;1.0066;151.0;1.0634;142.0;1.0216;204.0;-0.188;0.2701;101.0;103.0;-0.0161;-0.2719;1.2991;-0.4582;-0.1407;0.34;0.46;0.495;0.565;0.76;0.0
97.0;0.4802;202.0;1.3741;147.0;1.0426;141.0;1.0217;144.0;0.9863;146.0;1.0139;144.0;1.036;139.0;0.9929;203.0;-0.1619;0.2535;103.0;100.0;-0.0754;-0.2737;1.2791;-0.3577;-0.1571;0.35;0.475;0.51;0.585;0.75;0.0
191.0;1.8911;101.0;0.393;257.0;1.4942;172.0;0.9718;158.0;0.9461;167.0;0.9882;169.0;1.006;168.0;0.9825;222.0;-0.2399;0.3926;112.0;110.0;-0.1662;-0.238;1.9817;-0.4342;0.396;0.35;0.465;0.51;0.605;0.53;0.0
169.0;0.9941;170.0;0.9884;172.0;1.0;172.0;0.9556;175.0;0.9831;178.0;1.0056;177.0;1.0536;168.0;1.0182;245.0;-0.2774;0.2734;123.0;122.0;-0.264;-0.5961;1.8276;-0.4863;-0.2604;0.365;0.48;0.505;0.525;0.66;0.0
166.0;1.0506;158.0;0.9937;159.0;1.0392;153.0;0.9684;155.0;1.0;155.0;0.9873;157.0;0.9812;160.0;0.9816;221.0;-0.2886;0.1477;113.0;108.0;-0.167;-0.4828;0.8863;-0.3926;-0.2657;0.355;0.495;0.515;0.54;0.83;0.0
115.0;1.055;109.0;0.982;111.0;1.0278;108.0;1.0;108.0;0.9908;109.0;1.0187;107.0;0.9727;110.0;0.9322;154.0;-0.146;0.4744;79.0;75.0;-0.214;-0.4281;2.1397;-1.0898;0.1079;0.315;0.475;0.515;0.555;0.88;0.0
167.0;0.9489;176.0;1.0057;175.0;0.9777;179.0;0.9944;170.0;0.9497;179.0;1.0592;169.0;1.0629;159.0;0.9578;240.0;-0.1869;0.2748;122.0;118.0;-0.1551;-0.4901;1.878;-0.3866;0.03;0.36;0.485;0.51;0.535;0.715;0.0
167.0;0.9709;172.0;1.0178;169.0;1.0305;164.0;1.0123;169.0;1.0629;159.0;1.0461;152.0;0.956;159.0;1.0192;236.0;-0.3164;0.1645;118.0;118.0;-0.2389;-0.546;1.0165;-0.4365;-0.2506;0.38;0.475;0.5;0.52;0.84;0.0
170.0;1.0897;156.0;0.9689;161.0;2.0909;77.0;0.313;106.0;0.5222;203.0;1.2767;159.0;1.5437;103.0;0.4598;174.0;-0.4341;0.4097;100.0;74.0;0.025;-0.4586;1.8418;-0.6316;-0.0257;0.545;0.515;0.58;0.69;0.615;0.0
151.0;0.9742;155.0;1.0131;153.0;1.0132;151.0;0.9321;156.0;0.963;162.0;1.8837;86.0;0.344;250.0;1.5152;210.0;-0.2695;0.3902;101.0;109.0;-0.1928;-0.2792;1.9829;-0.4629;0.1317;0.32;0.425;0.485;0.585;0.515;0.0
159.0;1.325;120.0;0.6349;189.0;1.1595;163.0;0.976;164.0;0.988;166.0;1.0247;162.0;0.9818;165.0;1.0312;224.0;-0.3735;0.1603;110.0;114.0;-0.2696;-0.5757;0.937;-0.424;-0.3265;0.365;0.47;0.495;0.515;0.835;0.0
191.0;1.3264;144.0;0.96;150.0;1.0;150.0;1.0204;145.0;1.0284;141.0;0.9658;146.0;1.0504;139.0;1.0072;197.0;-0.1347;0.3854;96.0;101.0;-0.0358;-0.1634;1.821;-0.3746;0.2946;0.31;0.435;0.495;0.62;0.53;0.0
148.0;1.0496;141.0;1.0444;135.0;0.9712;139.0;0.9789;144.0;1.0511;137.0;0.9928;138.0;0.9583;144.0;0.9796;199.0;-0.2209;0.2461;99.0;100.0;-0.059;-0.3268;1.1795;-0.5256;-0.2578;0.34;0.465;0.5;0.565;0.82;0.0
144.0;0.9863;146.0;0.9605;152.0;1.027;148.0;1.6629;147.0;1.0138;145.0;0.9797;148.0;1.0;148.0;1.0571;200.0;-0.1831;0.2346;98.0;102.0;-0.0628;-0.3078;1.2068;-0.4219;-0.0816;0.33;0.455;0.49;0.555;0.755;0.0
172.0;0.9885;174.0;1.0058;173.0;0.9505;182.0;0.9681;174.0;0.9613;181.0;0.9679;187.0;1.0936;171.0;1.0118;240.0;-0.2472;0.2418;119.0;121.0;-0.2851;-0.5113;1.4877;-0.5878;-0.0789;0.36;0.475;0.5;0.52;0.68;0.0
189.0;1.0385;182.0;0.9891;184.0;1.0279;179.0;0.9521;175.0;0.9563;183.0;0.9892;185.0;1.0452;177.0;1.0291;245.0;-0.2704;0.2417;123.0;122.0;-0.2999;-0.5496;1.5838;-0.6137;-0.1309;0.36;0.48;0.505;0.525;0.685;0.0
177.0;2.1852;81.0;0.3214;252.0;1.6579;152.0;0.9935;151.0;0.9742;155.0;1.0131;153.0;1.0132;151.0;0.9321;215.0;-0.311;0.4179;110.0;105.0;-0.2262;-0.2959;2.0389;-0.4949;-0.1876;0.365;0.47;0.515;0.595;0.565;0.0
175.0;0.9831;178.0;1.0056;177.0;0.9833;180.0;1.0526;172.0;0.9942;173.0;1.0549;164.0;1.0;164.0;0.948;243.0;-0.1526;0.2488;123.0;120.0;-0.2158;-0.4601;1.7753;-0.3719;-0.0926;0.395;0.485;0.51;0.53;0.68;0.0
170.0;0.8416;202.0;1.2785;158.0;1.0822;146.0;0.9669;157.0;1.0979;143.0;1.6628;86.0;0.4057;212.0;1.3333;227.0;-0.3483;0.3736;118.0;109.0;0.0665;-0.3265;1.5311;-0.5426;0.2899;0.49;0.47;0.52;0.62;0.55;0.0
168.0;0.9333;180.0;0.9945;181.0;1.0;181.0;1.0;175.0;0.9831;178.0;1.0471;170.0;1.0366;164.0;1.0123;247.0;-0.2306;0.2592;125.0;122.0;-0.2669;-0.5257;1.6371;-0.5258;-0.0823;0.34;0.48;0.505;0.53;0.7;0.0
165.0;1.8966;87.0;0.3901;223.0;1.4025;159.0;1.0127;161.0;0.936;172.0;0.9829;175.0;1.0355;169.0;0.9494;221.0;-0.146;0.4197;109.0;112.0;-0.0819;-0.1696;2.2278;-0.371;0.3573;0.345;0.455;0.5;0.605;0.53;0.0
125.0;1.0081;124.0;0.992;125.0;0.9542;131.0;0.9034;127.0;0.9769;130.0;0.9924;131.0;0.9776;134.0;1.0;175.0;-0.1566;0.2858;87.0;88.0;-0.1578;-0.4032;1.0905;-0.6018;0.2145;0.325;0.445;0.5;0.525;0.795;0.0
108.0;0.9908;109.0;1.0187;107.0;0.9727;110.0;0.9322;111.0;1.0091;110.0;0.991;111.0;0.9911;112.0;0.9912;154.0;-0.0551;0.4875;77.0;77.0;0.0974;-0.3829;2.1847;-0.9526;0.5096;0.315;0.46;0.5;0.545;0.815;0.0
277.0;2.4955;111.0;0.5311;209.0;1.3933;150.0;0.974;77.0;0.3615;213.0;1.4013;152.0;0.956;159.0;1.0192;160.0;-0.1837;0.3865;107.0;53.0;-0.0952;-0.2183;1.7812;-0.3876;0.1766;0.48;0.595;0.675;0.825;0.71;0.0
179.0;0.9781;183.0;0.9946;184.0;1.0055;183.0;1.0223;180.0;0.973;185.0;1.0511;176.0;1.0115;174.0;0.9457;251.0;-0.2909;0.2576;126.0;125.0;-0.342;-0.5209;1.549;-0.6172;-0.1628;0.395;0.48;0.5;0.525;0.675;0.0
164.0;1.038;158.0;0.9461;167.0;0.9653;173.0;1.0881;169.0;1.0242;165.0;1.1074;149.0;0.9613;155.0;0.981;234.0;-0.2741;0.1576;116.0;118.0;-0.1487;-0.5167;0.9946;-0.3419;-0.238;0.365;0.475;0.5;0.52;0.83;0.0
189.0;1.0107;187.0;1.0625;176.0;0.9832;179.0;0.9781;171.0;1.0118;169.0;0.9494;178.0;1.0;178.0;1.0289;239.0;-0.0883;0.2098;120.0;119.0;-0.0878;-0.2407;1.5284;-0.5329;-0.0424;0.36;0.485;0.505;0.525;0.68;0.0
163.0;1.0;163.0;0.9879;165.0;1.0248;161.0;1.019;164.0;1.0123;162.0;1.0125;160.0;1.3913;115.0;0.6021;232.0;-0.373;0.145;118.0;114.0;-0.2518;-0.594;0.7448;-0.4942;-0.3742;0.35;0.49;0.515;0.535;0.835;0.0
215.0;0.9729;221.0;1.0138;218.0;0.9604;227.0;1.0413;110.0;1.0185;108.0;0.9474;114.0;1.0364;110.0;0.9821;150.0;-0.2183;0.4846;73.0;77.0;-0.2096;-0.5307;2.1486;-0.9411;0.3165;0.295;0.455;0.495;0.535;0.825;0.0
154.0;0.9506;162.0;0.9701;167.0;1.0;167.0;1.0309;171.0;0.9716;176.0;1.0798;163.0;0.9939;164.0;0.982;242.0;-0.2695;0.3336;123.0;119.0;-0.2037;-0.2687;1.8636;-0.5019;0.2031;0.36;0.475;0.51;0.63;0.535;0.0
85.0;0.4106;207.0;1.4577;142.0;1.029;138.0;0.9857;142.0;1.0143;140.0;1.0219;137.0;0.9856;139.0;0.9521;200.0;-0.2134;0.2733;101.0;99.0;-0.0672;-0.2894;1.2834;-0.4944;-0.2524;0.34;0.47;0.505;0.575;0.835;0.0
146.0;1.0355;141.0;1.0144;139.0;1.4787;94.0;0.5027;148.0;0.9427;157.0;0.9632;163.0;0.9588;170.0;0.9827;199.0;-0.1434;0.3496;96.0;103.0;-0.1194;-0.2237;1.8638;0.165;0.165;0.295;0.42;0.49;0.52;0.52;0.0
110.0;1.0;110.0;0.4933;223.0;1.9561;114.0;1.027;114.0;1.0459;109.0;0.9478;115.0;1.036;111.0;1.0183;154.0;-0.2959;0.4759;75.0;79.0;-0.119;-0.5009;2.0055;-1.1706;0.0152;0.325;0.45;0.49;0.535;0.795;0.0
146.0;0.9669;151.0;0.9805;154.0;1.0336;149.0;1.0493;149.0;1.0068;148.0;1.0278;144.0;1.0286;140.0;0.9929;206.0;-0.1836;0.2752;102.0;104.0;-0.0773;-0.385;1.3227;-0.4535;-0.0621;0.345;0.405;0.495;0.575;0.775;0.0
163.0;1.0516;155.0;0.9936;156.0;0.9176;170.0;1.0059;175.0;0.9722;180.0;1.0112;178.0;1.0;178.0;1.0409;237.0;-0.2631;0.2613;115.0;122.0;-0.2935;-0.5789;1.6752;-0.4597;-0.0682;0.38;0.465;0.49;0.51;0.675;0.0
113.0;1.0367;109.0;0.9646;113.0;1.018;111.0;1.0;112.0;0.9825;114.0;1.0364;110.0;0.9735;113.0;1.0762;155.0;-0.1242;0.5031;77.0;78.0;-0.195;-0.4361;2.0005;-1.1503;0.2325;0.295;0.46;0.5;0.545;0.81;0.0
89.0;0.341;261.0;1.5444;169.0;1.0903;155.0;1.0333;157.0;1.0753;146.0;1.0139;144.0;0.9474;152.0;0.8941;224.0;-0.1188;0.3842;115.0;109.0;-0.0091;-0.138;2.0771;-0.3717;0.3516;0.345;0.46;0.52;0.64;0.55;0.0
147.0;1.5155;97.0;0.5607;173.0;1.3308;130.0;0.922;138.0;1.0534;131.0;0.985;133.0;0.9301;143.0;1.402;193.0;-0.1147;0.3271;97.0;96.0;-0.0014;-0.1126;1.3497;-0.3285;0.0196;0.33;0.425;0.505;0.64;0.57;0.0
109.0;1.0;109.0;1.0283;106.0;0.9298;114.0;0.9913;113.0;0.9912;114.0;1.0179;112.0;1.009;111.0;0.9823;165.0;-0.0919;0.5587;86.0;79.0;0.1099;-0.3789;2.1595;-0.974;0.7791;0.355;0.49;0.525;0.565;0.835;0.0
162.0;0.9586;169.0;1.0764;157.0;1.0979;143.0;1.6628;85.0;0.4167;204.0;1.5;136.0;1.4624;93.0;0.4697;166.0;-0.3844;0.4231;107.0;59.0;0.3632;-0.4023;1.6016;-0.4674;0.1763;0.62;0.585;0.655;0.75;0.685;0.0
171.0;1.0301;166.0;1.0506;158.0;0.9576;165.0;1.0248;157.0;1.0064;156.0;0.975;160.0;1.0;160.0;0.9697;224.0;-0.3082;0.1383;115.0;109.0;-0.191;-0.4866;0.7975;-0.4128;-0.2737;0.355;0.495;0.515;0.535;0.825;0.0
180.0;1.0227;176.0;0.9888;178.0;1.0471;170.0;1.018;168.0;0.9825;171.0;1.0118;169.0;0.9826;172.0;0.9101;233.0;-0.1738;0.2237;116.0;117.0;-0.2053;-0.3993;1.4081;-0.4941;-0.1231;0.39;0.48;0.505;0.525;0.685;0.0
155.0;1.0616;146.0;1.0657;137.0;1.0301;133.0;1.3711;142.0;1.0365;137.0;0.9384;146.0;0.9542;153.0;0.9444;197.0;-0.2952;0.3482;98.0;99.0;0.1725;-0.3246;1.7394;-0.4679;-0.0486;0.47;0.435;0.505;0.61;0.54;0.0
141.0;0.993;142.0;0.993;143.0;0.9931;144.0;0.9863;142.0;0.966;147.0;0.9866;149.0;1.0;149.0;1.042;196.0;-0.2125;0.2604;97.0;99.0;-0.0968;-0.2663;1.2753;-0.4544;-0.1453;0.34;0.46;0.495;0.57;0.75;0.0
158.0;1.0464;151.0;0.9742;155.0;1.0131;153.0;1.0132;145.0;0.9295;156.0;0.963;162.0;1.8837;86.0;0.344;201.0;-0.3079;0.4006;100.0;101.0;-0.2389;-0.3352;1.9901;-0.5217;0.2222;0.37;0.445;0.505;0.6;0.53;0.0
111.0;0.5187;214.0;0.9511;225.0;1.0227;220.0;2.1154;224.0;1.0419;215.0;2.0093;107.0;0.9907;108.0;0.931;233.0;-0.0101;0.7293;77.0;156.0;0.3778;-0.1725;2.8968;-0.4172;-0.4172;0.505;0.755;0.805;0.845;0.845;0.0
147.0;1.0426;141.0;1.0217;138.0;1.0698;129.0;1.0;124.0;1.0081;123.0;0.9762;126.0;0.9692;130.0;1.04;172.0;-0.1026;0.2935;86.0;86.0;-0.0506;-0.3515;1.2055;-0.6497;0.2914;0.34;0.435;0.505;0.53;0.765;0.0
153.0;1.0552;145.0;1.0662;136.0;1.0303;132.0;1.0154;134.0;0.9853;136.0;1.0149;134.0;1.072;125.0;0.9398;188.0;-0.1636;0.2821;95.0;93.0;-0.0718;-0.3554;1.2721;-0.5791;0.2479;0.34;0.46;0.51;0.535;0.745;0.0
156.0;0.9936;157.0;0.9874;159.0;1.0392;153.0;1.0268;173.0;1.1234;154.0;1.0199;151.0;0.9557;158.0;0.9693;239.0;-0.2933;0.1529;118.0;121.0;-0.1444;-0.4909;0.9491;-0.427;-0.2787;0.36;0.475;0.495;0.515;0.825;0.0
173.0;0.9886;175.0;1.0;175.0;0.9358;187.0;0.9894;163.0;0.9588;170.0;1.0;170.0;1.0241;166.0;0.9881;226.0;-0.2712;0.2344;112.0;114.0;-0.2886;-0.4991;1.3855;-0.6293;-0.109;0.35;0.475;0.5;0.52;0.69;0.0
138.0;1.0147;136.0;0.9784;139.0;1.0146;137.0;0.9856;143.0;0.9728;147.0;1.0;147.0;1.0138;145.0;1.0662;204.0;-0.339;0.228;104.0;100.0;-0.1995;-0.4896;1.3798;-0.4911;-0.1913;0.365;0.46;0.515;0.54;0.74;0.0
166.0;2.0244;82.0;0.3071;267.0;1.4751;181.0;1.1037;173.0;1.0117;171.0;1.0892;157.0;1.0064;156.0;0.9936;239.0;-0.2209;0.4383;118.0;121.0;-0.169;-0.2391;2.2645;-0.4312;0.2113;0.34;0.445;0.495;0.585;0.525;0.0
145.0;0.9797;148.0;1.0;148.0;1.0137;146.0;0.9865;152.0;0.9935;153.0;1.0699;143.0;1.0288;139.0;0.9858;208.0;-0.3016;0.2732;102.0;106.0;-0.165;-0.3634;1.2363;-0.5773;-0.2785;0.335;0.45;0.49;0.565;0.805;0.0
170.0;0.9942;171.0;1.0;171.0;0.9828;174.0;0.9943;181.0;1.0169;178.0;1.0171;175.0;1.0542;166.0;1.0;248.0;-0.2891;0.2641;122.0;126.0;-0.3313;-0.5777;1.706;-0.6059;-0.2313;0.375;0.47;0.495;0.515;0.67;0.0
179.0;1.0113;177.0;0.9888;179.0;1.0529;170.0;1.018;170.0;1.0059;169.0;1.006;168.0;0.9941;169.0;0.9494;236.0;-0.2599;0.2668;118.0;118.0;-0.2782;-0.5308;1.7446;-0.4798;-0.1824;0.33;0.48;0.5;0.525;0.68;0.0
265.0;1.732;153.0;1.02;150.0;0.9036;166.0;1.0061;153.0;1.987;77.0;0.2928;263.0;1.5291;172.0;1.0118;212.0;-0.3139;0.3723;105.0;107.0;-0.2916;-0.3398;1.7692;-0.4989;0.1336;0.32;0.445;0.5;0.6;0.53;0.0
97.0;0.3774;257.0;1.5671;164.0;0.9762;168.0;0.96;176.0;1.0057;175.0;1.9663;89.0;0.3436;259.0;1.6603;238.0;-0.2044;0.3637;115.0;123.0;0.337;-0.1482;1.8952;0.4535;0.4535;0.46;0.45;0.485;0.51;0.51;0.0
150.0;1.0417;144.0;1.0435;138.0;1.0;138.0;1.0073;132.0;1.0233;129.0;0.9847;131.0;0.9632;136.0;1.0074;187.0;0.5865;0.253;95.0;92.0;0.5557;0.4624;2.3736;0.3989;0.7812;0.36;0.48;0.51;0.535;0.78;0.0
189.0;1.0216;185.0;1.0756;172.0;1.0058;171.0;1.0118;172.0;0.9556;180.0;0.989;182.0;0.9891;184.0;1.011;239.0;-0.676;0.22;119.0;120.0;-0.6127;-0.8261;1.0877;-1.046;-0.5168;0.375;0.48;0.5;0.52;0.675;0.0
144.0;1.2308;117.0;0.5021;233.0;1.6069;145.0;1.0;164.0;1.0581;155.0;1.0544;147.0;1.0208;144.0;0.9863;223.0;-0.0642;0.3372;109.0;114.0;0.0032;-0.092;1.9172;-0.2541;0.1886;0.305;0.43;0.495;0.595;0.525;0.0
169.0;1.0368;163.0;1.0316;158.0;1.0;158.0;1.0327;168.0;1.1351;148.0;0.9801;151.0;0.9805;154.0;0.9625;237.0;-0.1468;0.3957;120.0;117.0;-0.0531;-0.178;2.0893;-0.3842;0.4564;0.355;0.465;0.51;0.63;0.535;0.0
152.0;1.0133;150.0;1.0204;147.0;1.0068;146.0;1.0355;146.0;1.0282;142.0;1.0071;141.0;0.9724;145.0;0.9932;207.0;-0.2116;0.2628;105.0;102.0;-0.047;-0.2833;1.2888;-0.4817;-0.2447;0.355;0.475;0.51;0.575;0.845;0.0
174.0;1.0235;170.0;0.9714;175.0;0.9511;184.0;1.0055;185.0;1.0165;182.0;1.0225;178.0;1.0056;177.0;1.0;251.0;-0.2236;0.2361;122.0;129.0;-0.2494;-0.4688;1.5161;-0.5511;-0.1701;0.33;0.465;0.49;0.51;0.66;0.0
133.0;1.0231;130.0;0.9848;132.0;0.9925;133.0;0.9708;133.0;0.9779;136.0;1.0074;135.0;1.0;135.0;0.9783;182.0;-0.1189;0.2965;89.0;93.0;-0.0243;-0.3454;1.2488;-0.6167;0.2663;0.335;0.455;0.495;0.52;0.735;0.0
147.0;0.9608;153.0;1.0408;147.0;1.0652;138.0;1.0;143.0;0.9795;146.0;1.0355;141.0;1.0144;139.0;0.9929;202.0;-0.1909;0.2689;102.0;100.0;-0.104;-0.2941;1.329;-0.4817;-0.1205;0.345;0.47;0.51;0.575;0.79;0.0
113.0;1.0;113.0;1.0367;109.0;1.1474;95.0;0.754;229.0;1.0505;218.0;2.3956;91.0;0.7165;127.0;1.1545;311.0;-0.1664;0.806;151.0;160.0;2.0762;-0.4448;2.8273;-0.8255;-0.8255;0.485;0.82;0.86;0.89;0.89;0.0
141.0;1.0144;139.0;1.0221;136.0;0.951;143.0;1.0;143.0;1.0288;139.0;0.9929;140.0;0.9524;147.0;0.9484;199.0;-0.2607;0.2586;99.0;100.0;-0.0897;-0.3443;1.1977;-0.5523;-0.2238;0.35;0.465;0.5;0.58;0.81;0.0
139.0;0.9929;140.0;1.0219;137.0;0.9648;142.0;0.9793;135.0;0.9712;139.0;0.9789;142.0;0.9726;146.0;0.9605;192.0;-0.2351;0.2187;98.0;94.0;-0.1194;-0.3034;1.123;-0.4542;-0.2386;0.35;0.475;0.515;0.585;0.88;0.0
109.0;0.9909;110.0;1.0;110.0;0.991;111.0;1.0091;112.0;1.037;108.0;0.9908;109.0;1.0093;108.0;0.9643;155.0;-0.2777;0.4618;77.0;78.0;-0.2104;-0.5624;2.0366;-1.0305;0.19;0.32;0.455;0.5;0.545;0.835;0.0
163.0;0.9939;164.0;0.948;173.0;1.0549;164.0;1.0446;172.0;1.0361;166.0;1.0311;161.0;1.0;161.0;0.9641;238.0;-0.1558;0.2946;118.0;120.0;-0.1759;-0.4966;1.9745;-0.4053;-0.1;0.37;0.47;0.495;0.52;0.685;0.0
151.0;1.0486;144.0;1.0;144.0;1.0286;140.0;1.0072;144.0;1.0286;140.0;1.0219;137.0;0.9786;140.0;1.0072;207.0;-0.3114;0.2674;107.0;100.0;-0.1917;-0.3777;1.1612;-0.5913;-0.2638;0.345;0.48;0.515;0.595;0.805;0.0
154.0;1.0548;146.0;1.0282;142.0;1.0216;139.0;0.972;144.0;1.007;143.0;1.0142;141.0;1.0071;140.0;0.9589;200.0;-0.2107;0.2501;100.0;100.0;-0.0677;-0.3613;1.1867;-0.4047;0.7853;0.345;0.47;0.5;0.56;0.515;0.0
167.0;0.9278;180.0;0.9783;184.0;0.9946;185.0;1.0165;189.0;1.0385;182.0;0.9891;184.0;1.0279;179.0;0.9521;264.0;-0.2226;0.2309;132.0;132.0;-0.2483;-0.4257;1.4648;-0.4677;-0.1381;0.355;0.48;0.5;0.525;0.67;0.0
153.0;1.9367;79.0;0.0947;834.0;5.2785;158.0;0.9937;159.0;2.0649;77.0;0.3407;226.0;1.4395;157.0;0.929;228.0;-0.2016;0.358;117.0;111.0;-0.1278;-0.202;1.7956;-0.3936;0.4118;0.35;0.47;0.515;0.605;0.545;0.0
158.0;1.0064;157.0;1.0329;152.0;0.9212;165.0;1.0;155.0;0.9688;160.0;0.9581;167.0;1.006;166.0;1.0506;216.0;-0.3168;0.146;108.0;108.0;-0.1884;-0.5101;0.8731;-0.4623;-0.2853;0.385;0.48;0.5;0.52;0.85;0.0
112.0;0.9825;114.0;1.0179;112.0;0.5114;219.0;1.9381;110.0;1.0;110.0;0.9821;112.0;1.0182;110.0;0.9735;234.0;-0.0781;0.608;157.0;77.0;-0.1833;-0.3455;2.6624;-0.447;-0.447;0.15;0.17;0.195;0.235;0.235;0.0
172.0;1.0178;169.0;1.0696;158.0;1.0;158.0;1.026;147.0;1.0;147.0;1.7927;82.0;0.3431;239.0;1.5031;216.0;-0.1735;0.3819;114.0;102.0;0.2684;-0.1987;2.1387;-0.3887;0.2482;0.5;0.475;0.53;0.64;0.555;0.0
142.0;0.9726;146.0;1.6044;91.0;0.4354;209.0;1.3933;144.0;0.9863;146.0;1.0;146.0;1.0;146.0;1.0355;200.0;-0.3832;0.2748;100.0;100.0;-0.2605;-0.3592;1.0335;-0.5135;-0.315;0.325;0.46;0.5;0.58;0.775;0.0
110.0;0.9821;112.0;1.0182;110.0;1.0;110.0;0.9821;112.0;1.0;112.0;1.0275;109.0;0.9646;113.0;1.066;156.0;-0.0639;0.4872;78.0;78.0;0.0128;-0.3;2.2328;-0.9737;0.0255;0.32;0.465;0.505;0.55;0.775;0.0
144.0;1.036;139.0;1.0146;137.0;0.9786;140.0;0.9859;140.0;1.0219;137.0;0.9856;139.0;0.9789;142.0;0.9404;198.0;-0.1104;0.2583;100.0;98.0;0.0968;-0.092;1.3846;-0.4622;0.0089;0.35;0.475;0.505;0.625;0.85;0.0
97.0;0.8083;120.0;1.0909;110.0;0.991;111.0;0.4955;109.0;1.0187;107.0;0.4954;216.0;2.0971;103.0;0.8803;155.0;0.0113;0.4778;79.0;76.0;0.0969;-0.2862;2.2182;-0.9556;0.4022;0.315;0.475;0.51;0.555;0.88;0.0
156.0;1.0263;152.0;0.9806;155.0;1.0616;146.0;1.0657;149.0;1.0567;141.0;0.993;142.0;1.0365;137.0;0.9384;211.0;-0.3147;0.3477;107.0;104.0;-0.2072;-0.3187;1.624;0.0697;0.0697;0.345;0.465;0.51;0.545;0.545;0.0
157.0;1.0979;143.0;0.9931;144.0;0.973;148.0;1.0068;151.0;0.9152;165.0;0.988;167.0;0.9766;171.0;0.9396;212.0;-0.2485;0.3733;107.0;105.0;-0.174;-0.2684;1.9454;-0.4987;0.2343;0.355;0.46;0.51;0.615;0.535;0.0
146.0;1.0282;142.0;1.0071;141.0;1.0292;137.0;1.0;136.0;1.0074;135.0;0.9643;140.0;0.9929;141.0;1.0217;193.0;-0.255;0.2533;98.0;95.0;-0.0869;-0.3575;1.1481;-0.5388;-0.2616;0.355;0.475;0.51;0.59;0.85;0.0
159.0;0.9938;160.0;1.0811;148.0;1.0571;140.0;0.9929;154.0;1.0405;148.0;0.9801;151.0;0.9742;155.0;0.9509;217.0;-0.3147;0.2604;110.0;107.0;-0.285;-0.639;1.3545;-0.744;-0.1777;0.35;0.48;0.51;0.535;0.76;0.0
158.0;1.0;158.0;1.0194;155.0;1.0403;149.0;1.0956;151.0;1.6593;91.0;0.4667;195.0;1.3732;142.0;0.9595;212.0;-0.089;0.3812;107.0;105.0;0.4439;-0.161;2.0768;-0.2826;0.2573;0.48;0.43;0.51;0.605;0.54;0.0
161.0;1.0455;154.0;1.0405;148.0;1.0;148.0;0.961;157.0;1.0129;155.0;0.981;158.0;0.9753;162.0;0.9878;216.0;-0.4943;0.166;107.0;109.0;-0.3768;-0.737;0.7541;-0.6504;-0.4893;0.365;0.47;0.495;0.52;0.815;0.0
149.0;1.0;149.0;0.9675;154.0;0.9565;161.0;1.6429;97.0;0.4663;208.0;1.3248;157.0;1.4673;107.0;0.535;168.0;-0.1408;0.406;101.0;67.0;0.2758;-0.2293;1.983;-0.3368;0.1838;0.57;0.505;0.61;0.73;0.645;0.0
140.0;0.9859;142.0;0.966;147.0;1.0068;146.0;1.0;142.0;0.9404;151.0;1.0067;150.0;1.0274;146.0;1.0504;196.0;-0.1818;0.2255;97.0;99.0;-0.1073;-0.3451;1.0577;-0.4796;-0.1835;0.34;0.46;0.5;0.56;0.745;0.0
146.0;0.9932;147.0;1.0352;142.0;0.9861;144.0;1.0511;144.0;1.036;139.0;1.0146;137.0;0.9786;140.0;0.9859;203.0;-0.2852;0.228;103.0;100.0;-0.1414;-0.3729;1.1083;-0.562;-0.1707;0.35;0.475;0.51;0.585;0.805;0.0
223.0;2.2525;99.0;0.8049;123.0;1.0789;114.0;1.0459;108.0;0.9391;115.0;0.9746;118.0;1.0826;109.0;0.9646;151.0;0.0322;0.4831;76.0;75.0;0.0241;-0.2962;2.2028;-0.7896;0.6877;0.31;0.47;0.505;0.55;0.825;0.0
112.0;1.0566;106.0;0.9725;109.0;0.9397;116.0;1.045;109.0;0.9316;117.0;1.0636;110.0;1.0;110.0;1.0;153.0;-0.2325;0.5015;77.0;76.0;-0.2187;-0.558;2.0568;-1.0032;0.2598;0.3;0.46;0.505;0.55;0.865;0.0
174.0;0.9721;179.0;0.9728;184.0;1.0222;180.0;1.0588;180.0;1.0909;165.0;1.0577;156.0;0.9512;164.0;1.025;250.0;-0.2169;0.245;125.0;125.0;-0.2683;-0.4285;1.5243;-0.5435;-0.2001;0.395;0.48;0.505;0.525;0.675;0.0
178.0;0.9944;179.0;0.9572;187.0;1.0275;182.0;1.0769;180.0;1.0651;169.0;1.0181;166.0;0.9765;170.0;0.977;252.0;-0.2025;0.2617;127.0;125.0;-0.2645;-0.507;1.7267;-0.3965;0.0294;0.385;0.48;0.505;0.53;0.71;0.0
176.0;1.0173;173.0;1.0;173.0;1.0549;164.0;0.9704;166.0;1.0247;162.0;0.9474;171.0;0.9607;178.0;1.0;237.0;-0.2217;0.2733;121.0;116.0;-0.2116;-0.5413;1.8361;-0.4983;-0.1569;0.355;0.49;0.515;0.535;0.685;0.0
164.0;1.0581;155.0;0.9873;157.0;0.9515;165.0;0.994;149.0;0.9198;162.0;0.9939;163.0;0.9702;168.0;0.9882;204.0;-0.0944;0.3672;100.0;104.0;0.5482;-0.116;2.0511;0.1895;0.1895;0.47;0.44;0.495;0.525;0.525;0.0
180.0;1.0345;174.0;1.0235;170.0;0.9714;175.0;0.9511;175.0;0.9459;185.0;1.0165;182.0;1.0225;178.0;1.0056;243.0;-0.2277;0.2225;121.0;122.0;-0.2468;-0.4694;1.458;-0.5283;-0.1539;0.4;0.48;0.505;0.525;0.67;0.0
115.0;1.036;111.0;1.0091;110.0;1.0185;108.0;0.9558;111.0;0.9737;114.0;1.0179;112.0;0.9912;113.0;0.9826;154.0;-0.1718;0.5177;77.0;77.0;-0.1279;-0.5965;1.9754;-1.1615;0.4794;0.33;0.46;0.5;0.545;0.855;0.0
155.0;1.0131;153.0;0.9562;160.0;0.9816;163.0;1.0188;171.0;1.0621;161.0;1.0255;157.0;0.9632;163.0;1.0795;233.0;-0.3887;0.1472;114.0;119.0;-0.2581;-0.6797;0.7294;-0.4973;-0.3818;0.375;0.465;0.495;0.515;0.785;0.0
108.0;0.973;111.0;0.9737;114.0;0.9913;115.0;1.055;111.0;1.0;111.0;1.0278;108.0;0.9818;110.0;0.991;157.0;-0.4888;0.4649;80.0;77.0;-0.5638;-0.7824;1.8436;-1.4056;-0.2426;0.32;0.475;0.515;0.555;0.875;0.0
133.0;0.9779;136.0;0.9927;137.0;1.0148;135.0;1.0075;134.0;1.0075;133.0;1.0076;132.0;0.9496;139.0;0.9205;184.0;-0.1351;0.2896;91.0;93.0;-0.1484;-0.3101;1.2894;-0.5322;0.2123;0.33;0.45;0.5;0.525;0.78;0.0
142.0;0.9161;155.0;0.9394;165.0;0.9821;168.0;1.0701;148.0;0.925;160.0;1.039;154.0;1.0922;141.0;1.0522;200.0;0.057;0.3142;97.0;103.0;0.1383;0.0046;1.8762;-0.105;0.3817;0.3;0.43;0.49;0.585;0.525;0.0
166.0;1.044;159.0;1.0;159.0;1.0127;157.0;0.9632;153.0;0.9562;160.0;0.9816;163.0;0.9939;164.0;1.0061;216.0;-0.2593;0.1497;109.0;107.0;-0.1307;-0.4681;0.9302;-0.3169;-0.2398;0.38;0.485;0.51;0.53;0.82;0.0
142.0;1.0;142.0;0.993;143.0;1.0;143.0;0.9795;139.0;0.9329;149.0;1.0068;148.0;1.0137;146.0;1.0429;192.0;-0.2176;0.2611;95.0;97.0;-0.028;-0.2654;1.2305;-0.5212;-0.2151;0.345;0.46;0.495;0.58;0.745;0.0
171.0;1.0427;164.0;1.025;160.0;1.0191;157.0;0.9691;155.0;0.981;158.0;0.9875;160.0;0.9581;167.0;0.994;220.0;-0.3741;0.1432;112.0;108.0;-0.246;-0.565;0.7868;-0.4894;-0.3654;0.345;0.49;0.51;0.53;0.845;0.0
138.0;1.0;138.0;0.9388;147.0;0.98;150.0;1.0135;142.0;0.9726;146.0;0.9605;152.0;1.0;152.0;1.0411;195.0;-0.1883;0.2614;96.0;99.0;-0.0695;-0.2482;1.2459;-0.4429;-0.1934;0.335;0.46;0.495;0.57;0.84;0.0
169.0;1.0242;165.0;1.1074;149.0;0.9613;155.0;0.981;144.0;0.9351;154.0;0.9625;160.0;0.9412;170.0;1.0828;213.0;-0.2868;0.1985;113.0;100.0;-0.1406;-0.4949;1.1365;-0.3595;-0.2053;0.41;0.505;0.535;0.56;0.895;0.0
167.0;1.0121;165.0;0.988;167.0;1.057;158.0;0.9875;158.0;1.0;158.0;0.9875;160.0;0.9756;164.0;1.0;222.0;-0.328;0.1507;112.0;110.0;-0.2199;-0.6013;0.8392;-0.4325;-0.3179;0.34;0.475;0.51;0.53;0.85;0.0
89.0;0.3436;259.0;1.6603;156.0;0.9398;166.0;0.9379;164.0;2.0759;79.0;0.2873;275.0;1.6082;171.0;1.0755;226.0;-0.1742;0.3922;112.0;114.0;-0.1094;-0.1454;1.9187;-0.3958;0.5115;0.335;0.46;0.5;0.61;0.525;0.0
155.0;1.0333;150.0;1.087;138.0;0.9787;141.0;1.0217;150.0;0.9677;155.0;1.0403;149.0;1.1037;135.0;1.0227;212.0;-0.4119;0.2416;107.0;105.0;-0.2589;-0.5473;1.3218;-0.5287;-0.2051;0.36;0.45;0.505;0.54;0.735;0.0
110.0;1.0092;109.0;0.982;111.0;1.0;111.0;0.9911;103.0;0.8306;124.0;1.2917;96.0;0.7619;126.0;0.5727;228.0;-0.5547;0.8259;156.0;72.0;1.1988;-0.8021;2.5677;-1.785;-1.1956;0.16;0.13;0.19;0.32;0.23;0.0
150.0;1.0204;147.0;1.0;147.0;1.0068;146.0;0.9669;153.0;0.9871;155.0;1.0131;153.0;0.9562;160.0;0.9816;212.0;-0.3104;0.1428;105.0;107.0;-0.1627;-0.5366;0.8371;-0.4474;-0.2993;0.365;0.475;0.495;0.515;0.815;0.0
182.0;1.0581;172.0;1.0058;171.0;0.95;180.0;0.9474;182.0;0.9579;190.0;1.0556;180.0;1.0286;175.0;1.0;250.0;-0.2684;0.2175;123.0;127.0;-0.2872;-0.5117;1.3853;-0.631;-0.1886;0.34;0.47;0.495;0.515;0.675;0.0
160.0;0.9877;162.0;0.9939;163.0;1.0124;161.0;1.0455;162.0;1.0318;157.0;1.0261;153.0;0.9935;154.0;0.9809;231.0;-0.2707;0.1799;118.0;113.0;-0.1612;-0.5355;1.1463;-0.3375;-0.2369;0.385;0.485;0.515;0.535;0.835;0.0
213.0;2.3667;90.0;0.7031;128.0;1.1852;108.0;0.973;226.0;1.0415;217.0;0.9864;220.0;1.0185;216.0;1.9459;311.0;-0.1719;0.61;153.0;158.0;-0.3389;-0.5037;2.4827;-0.7216;-0.7216;0.09;0.12;0.14;0.165;0.165;0.0
186.0;1.0276;181.0;1.0056;180.0;0.9945;181.0;1.0169;176.0;1.0292;171.0;1.0301;166.0;0.9379;177.0;0.9833;251.0;-0.2714;0.2229;128.0;123.0;-0.2991;-0.5228;1.4061;-0.5266;-0.1786;0.36;0.49;0.515;0.535;0.68;0.0
173.0;1.0679;162.0;1.0125;160.0;0.9639;166.0;0.994;164.0;0.9011;182.0;0.9529;191.0;1.038;184.0;0.9946;223.0;-0.2584;0.2744;109.0;114.0;-0.2768;-0.5415;1.741;-0.424;-0.0778;0.37;0.465;0.49;0.515;0.69;0.0
132.0;1.0154;130.0;0.9489;137.0;0.9648;142.0;0.9861;156.0;0.9936;157.0;0.9752;161.0;1.0255;157.0;0.9573;210.0;-0.1078;0.3572;101.0;109.0;-0.0256;-0.1152;1.8846;-0.3249;0.0401;0.335;0.425;0.485;0.58;0.54;0.0
76.0;0.3319;229.0;1.4312;160.0;1.5534;103.0;0.4239;77.0;0.2831;272.0;1.5632;174.0;1.0175;171.0;1.0892;164.0;-0.1985;0.5071;111.0;53.0;0.4592;-0.2328;2.3136;-0.3955;0.3774;0.645;0.61;0.68;0.78;0.715;0.0
174.0;0.9457;184.0;0.9534;193.0;1.0432;185.0;1.0393;187.0;1.0625;176.0;0.9724;181.0;1.0402;174.0;0.9721;265.0;-0.1761;0.2459;135.0;130.0;-0.1884;-0.4303;1.6777;-0.5463;-0.1265;0.405;0.49;0.51;0.53;0.665;0.0
175.0;1.0542;166.0;1.0573;157.0;1.0;157.0;0.9691;155.0;1.0065;154.0;0.9625;160.0;1.0127;158.0;0.9634;222.0;-0.2808;0.1501;114.0;108.0;-0.17;-0.4828;0.9223;-0.3501;-0.2429;0.385;0.49;0.515;0.535;0.805;0.0
136.0;0.951;143.0;1.0;143.0;0.9728;147.0;1.0;140.0;0.9524;147.0;0.9484;155.0;1.0616;146.0;1.0282;195.0;-0.2668;0.2641;97.0;98.0;-0.1293;-0.3549;1.2098;-0.5379;-0.2654;0.34;0.465;0.5;0.575;0.745;0.0
174.0;1.0482;166.0;0.994;167.0;0.8978;186.0;1.0391;183.0;0.9946;184.0;1.0222;180.0;1.0345;174.0;1.0058;246.0;-0.2002;0.2769;118.0;128.0;-0.236;-0.5472;1.8375;-0.3667;-0.0312;0.37;0.455;0.48;0.505;0.665;0.0
111.0;1.0278;108.0;0.9558;113.0;0.9912;114.0;1.0364;116.0;1.045;111.0;1.0183;109.0;1.0;109.0;0.9909;162.0;0.5212;0.4455;81.0;81.0;0.744;0.3152;2.5068;-0.385;0.9677;0.34;0.465;0.505;0.545;0.815;0.0
157.0;1.0753;146.0;1.0139;144.0;0.9474;152.0;0.8941;78.0;0.321;243.0;1.3886;175.0;1.0;175.0;1.9231;164.0;-0.0431;0.4642;110.0;54.0;0.0071;-0.0851;2.2783;-0.2623;0.4054;0.455;0.615;0.68;0.795;0.715;0.0
137.0;1.0224;134.0;1.0551;127.0;1.0;127.0;1.016;138.0;1.0222;135.0;1.0305;131.0;1.0234;128.0;1.0079;190.0;-0.1289;0.3027;94.0;96.0;-0.0996;-0.3028;1.3332;-0.5774;0.3204;0.335;0.465;0.5;0.525;0.735;0.0
175.0;1.0355;169.0;1.0;169.0;0.9769;173.0;0.9719;169.0;0.9602;176.0;0.9888;178.0;0.978;182.0;1.0111;235.0;-0.252;0.2407;117.0;118.0;-0.2671;-0.535;1.5413;-0.4114;0.0308;0.375;0.48;0.5;0.525;0.71;0.0
158.0;0.9693;163.0;0.9939;164.0;0.9762;168.0;1.0307;171.0;1.024;167.0;1.0121;165.0;1.0645;155.0;0.9748;235.0;-0.3617;0.1557;116.0;119.0;-0.2952;-0.5815;0.9025;-0.48;-0.289;0.37;0.47;0.495;0.515;0.865;0.0
106.0;0.9636;110.0;0.9821;112.0;1.0182;110.0;1.0;112.0;1.0;112.0;1.0;112.0;1.0275;109.0;0.9646;153.0;0.0045;0.4743;75.0;78.0;0.0862;-0.1794;2.3254;-0.7365;0.4033;0.3;0.45;0.49;0.54;0.85;0.0
159.0;0.9695;164.0;0.9939;165.0;1.0;165.0;2.1429;93.0;0.3924;237.0;1.5096;157.0;0.9874;159.0;0.9353;185.0;-0.1205;0.4405;120.0;65.0;0.3471;-0.1291;2.1202;-0.3208;0.4962;0.61;0.585;0.65;0.79;0.68;0.0
156.0;1.3;120.0;0.678;177.0;1.0793;164.0;0.9591;160.0;0.9524;168.0;1.0566;159.0;0.9353;170.0;1.0366;218.0;-0.3092;0.147;106.0;112.0;-0.1735;-0.5122;0.9674;-0.3638;-0.2969;0.36;0.47;0.49;0.51;0.795;0.0
111.0;1.0091;110.0;1.028;107.0;0.964;111.0;1.0;112.0;1.0566;106.0;0.9725;109.0;0.9397;116.0;1.045;152.0;0.0404;0.4743;74.0;78.0;0.0351;-0.2473;2.1099;-0.9342;0.4268;0.295;0.45;0.49;0.535;0.815;0.0
173.0;1.0117;171.0;0.9828;174.0;1.0175;171.0;0.9828;177.0;0.9888;179.0;1.0;179.0;0.9781;183.0;1.0517;249.0;-0.1393;0.2399;126.0;123.0;-0.0693;-0.3371;1.549;-0.4464;-0.1314;0.365;0.485;0.51;0.53;0.67;0.0
176.0;0.9778;180.0;1.0112;178.0;1.0471;170.0;0.9884;170.0;0.977;174.0;0.9775;178.0;0.9418;189.0;1.0442;246.0;-0.1954;0.2293;128.0;118.0;-0.2237;-0.4693;1.48;-0.576;-0.0978;0.37;0.5;0.525;0.545;0.695;0.0
165.0;0.9483;174.0;0.9405;185.0;1.0165;182.0;0.9945;179.0;1.0287;174.0;0.9943;175.0;1.0294;170.0;1.0;255.0;-0.2101;0.284;130.0;125.0;-0.2391;-0.5197;1.9195;-0.4301;-0.0721;0.395;0.485;0.51;0.53;0.68;0.0
170.0;1.0303;165.0;1.0123;163.0;0.9879;165.0;1.0377;159.0;1.0325;154.0;0.9747;158.0;1.026;154.0;0.9747;227.0;-0.3647;0.1564;116.0;111.0;-0.237;-0.5774;0.8724;-0.5107;-0.3575;0.385;0.49;0.51;0.53;0.86;0.0
113.0;1.0089;112.0;1.0;112.0;0.4956;226.0;1.018;99.0;0.792;125.0;1.3587;92.0;0.6917;133.0;0.5991;153.0;0.0751;0.6154;84.0;69.0;0.1738;-0.1605;2.4799;-0.7007;1.0554;0.37;0.515;0.555;0.6;0.895;0.0
157.0;1.0;157.0;0.9812;160.0;0.9756;164.0;1.0061;158.0;0.9405;168.0;1.0182;165.0;1.0248;161.0;0.9583;220.0;-0.3157;0.1691;110.0;110.0;-0.2283;-0.5283;1.0226;-0.3616;-0.2694;0.375;0.48;0.505;0.525;0.85;0.0
178.0;1.0056;177.0;1.0;177.0;1.0473;169.0;0.9657;170.0;0.9884;172.0;0.9247;186.0;1.0508;177.0;1.0231;238.0;-0.2182;0.243;120.0;118.0;-0.2617;-0.461;1.5516;-0.5421;-0.1387;0.4;0.485;0.51;0.53;0.68;0.0
154.0;0.9809;157.0;0.9345;168.0;0.9767;172.0;1.0488;167.0;0.9824;170.0;1.0241;166.0;1.0779;154.0;0.9747;230.0;-0.3277;0.153;114.0;116.0;-0.2287;-0.5435;0.8714;-0.4259;-0.2687;0.335;0.475;0.5;0.52;0.795;0.0
153.0;0.9684;158.0;0.9405;168.0;0.9767;172.0;1.0178;167.0;0.9598;174.0;1.061;164.0;1.1156;147.0;1.0;231.0;-0.1161;0.4377;115.0;116.0;-0.0688;-0.1174;2.3069;-0.3202;0.0189;0.315;0.455;0.5;0.6;0.555;0.0
138.0;0.9583;144.0;0.9863;146.0;0.9799;149.0;1.0347;138.0;0.9388;147.0;0.9608;153.0;1.0479;146.0;1.0504;194.0;-0.1815;0.2251;98.0;96.0;-0.0611;-0.3037;1.1372;-0.3919;-0.095;0.345;0.475;0.505;0.575;0.805;0.0
175.0;1.0234;171.0;0.9884;173.0;1.0613;163.0;1.0062;166.0;1.0506;158.0;0.9875;160.0;0.9357;171.0;0.9553;230.0;-0.2659;0.2665;114.0;116.0;-0.2936;-0.5861;1.681;-0.5504;-0.0749;0.325;0.475;0.5;0.52;0.71;0.0
158.0;0.9518;166.0;0.954;174.0;1.0545;165.0;1.0123;172.0;1.0178;169.0;1.0629;159.0;1.0192;156.0;0.975;234.0;-0.3987;0.1615;114.0;120.0;-0.3244;-0.5941;0.926;-0.5095;-0.3198;0.37;0.47;0.49;0.51;0.845;0.0
110.0;1.0;110.0;0.4825;228.0;1.0411;219.0;2.0467;112.0;1.0467;107.0;0.4842;221.0;1.9217;115.0;1.0268;155.0;-0.3189;0.4809;77.0;78.0;-0.2988;-0.5881;2.1483;-1.1906;-0.0175;0.315;0.46;0.5;0.54;0.855;0.0
114.0;1.0459;109.0;0.9561;114.0;1.027;111.0;0.9823;109.0;0.9646;113.0;1.0;113.0;1.0089;112.0;1.037;158.0;-0.141;0.4973;82.0;76.0;-0.1588;-0.5002;2.0925;-1.0843;0.1816;0.315;0.48;0.52;0.565;0.905;0.0
173.0;0.9558;181.0;1.0462;173.0;1.0613;163.0;0.9588;171.0;0.9716;176.0;0.9944;177.0;0.9725;182.0;0.9529;247.0;-0.1249;0.251;128.0;119.0;-0.1362;-0.3832;1.7814;-0.457;-0.0338;0.365;0.495;0.52;0.54;0.685;0.0
184.0;1.0;184.0;0.9892;186.0;1.022;182.0;1.0581;181.0;1.0523;172.0;0.9556;180.0;0.9524;189.0;0.9742;253.0;-0.1818;0.2557;127.0;126.0;-0.1866;-0.4706;1.732;-0.5513;-0.0305;0.34;0.48;0.505;0.525;0.68;0.0
127.0;0.9695;131.0;0.9632;136.0;0.9855;138.0;1.0;134.0;0.9853;136.0;0.9577;142.0;1.0143;140.0;1.0219;188.0;-0.0901;0.2858;95.0;93.0;0.0773;-0.2545;1.1323;-0.6508;0.2196;0.35;0.455;0.505;0.56;0.74;0.0
139.0;0.9789;142.0;1.4947;95.0;0.4612;206.0;1.3826;147.0;0.9866;149.0;1.0347;144.0;0.973;148.0;1.0278;200.0;-0.2562;0.2777;98.0;102.0;-0.0756;-0.3614;1.2279;-0.5536;-0.2853;0.325;0.455;0.49;0.57;0.755;0.0
114.0;0.5205;219.0;0.9955;220.0;1.982;111.0;1.0091;217.0;2.2842;95.0;0.7364;129.0;0.5945;217.0;1.9727;304.0;-0.1812;0.7937;153.0;151.0;2.0634;-0.325;2.7912;-0.7798;-0.7798;0.505;0.815;0.855;0.885;0.885;0.0
132.0;1.0312;128.0;1.0323;124.0;1.0508;118.0;1.0;138.0;1.0615;130.0;0.9848;132.0;1.0233;129.0;1.0488;193.0;-0.1679;0.2747;97.0;96.0;-0.0953;-0.404;1.2205;-0.6014;0.2362;0.35;0.445;0.505;0.53;0.745;0.0
109.0;0.982;111.0;0.4978;223.0;1.0;223.0;2.0273;90.0;0.6716;134.0;1.2885;104.0;0.8667;120.0;1.0714;141.0;-0.3475;0.5044;79.0;62.0;-0.2853;-0.6733;1.8276;-1.2204;0.2377;0.36;0.52;0.565;0.62;0.935;0.0
148.0;0.9867;150.0;0.9677;155.0;1.0197;152.0;1.8765;150.0;0.9202;163.0;1.0062;162.0;1.0;162.0;1.8621;206.0;-0.249;0.4076;101.0;105.0;-0.1789;-0.2819;2.1292;-0.474;0.277;0.315;0.45;0.495;0.6;0.525;0.0
112.0;0.4828;232.0;1.341;173.0;1.0298;168.0;1.0;101.0;0.393;257.0;1.4942;172.0;0.9718;177.0;1.0351;203.0;-0.1836;0.4181;133.0;70.0;0.3229;-0.1807;2.0368;0.4531;0.4531;0.625;0.61;0.66;0.685;0.685;0.0
146.0;0.9865;148.0;1.035;143.0;1.0214;140.0;1.0072;139.0;0.9858;141.0;0.986;143.0;1.6437;87.0;0.4328;197.0;-0.2886;0.2703;100.0;97.0;-0.1412;-0.3515;1.2094;-0.5601;-0.3005;0.345;0.47;0.51;0.58;0.815;0.0
168.0;0.9941;169.0;1.0368;163.0;1.0188;160.0;0.9524;170.0;0.9605;177.0;0.9568;185.0;1.0054;184.0;0.984;240.0;-0.1538;0.2542;122.0;118.0;-0.1848;-0.4184;1.6998;-0.4933;0.0517;0.405;0.485;0.51;0.53;0.695;0.0
148.0;1.035;143.0;0.9931;144.0;0.9536;151.0;0.9679;167.0;0.9227;181.0;1.0585;171.0;1.0059;170.0;0.9884;227.0;-0.0557;0.2792;111.0;116.0;-0.0774;-0.2943;1.9635;-0.2637;0.0593;0.335;0.47;0.49;0.515;0.67;0.0
171.0;1.0427;164.0;1.0719;153.0;1.0479;146.0;1.0355;155.0;1.0764;144.0;1.0435;138.0;0.9324;148.0;0.9427;215.0;-0.2359;0.3344;107.0;108.0;0.1606;-0.285;1.7296;0.0656;0.0656;0.465;0.44;0.5;0.535;0.535;0.0
164.0;1.0123;162.0;1.0452;155.0;0.9748;159.0;0.9815;153.0;0.9684;158.0;1.0;158.0;0.9576;165.0;1.0061;218.0;-0.2687;0.148;111.0;107.0;-0.1223;-0.4947;0.9126;-0.3791;-0.2609;0.39;0.49;0.51;0.53;0.805;0.0
213.0;2.1515;99.0;0.8115;122.0;1.0609;115.0;1.036;111.0;1.0;111.0;0.9823;113.0;1.0561;107.0;0.9907;153.0;-0.3549;0.5012;76.0;77.0;-0.2022;-0.6329;1.9209;-1.2654;0.0114;0.3;0.46;0.5;0.545;0.86;0.0
107.0;0.4842;221.0;2.0275;109.0;1.1122;98.0;0.417;110.0;0.4955;222.0;2.22;100.0;0.813;123.0;1.0982;154.0;-0.3641;0.4907;77.0;77.0;-0.2574;-0.6644;1.8953;-1.2963;0.1031;0.335;0.46;0.5;0.54;0.855;0.0
166.0;1.0;166.0;0.9022;184.0;1.0;184.0;1.0824;177.0;0.9944;178.0;1.0114;176.0;1.0233;172.0;0.9829;241.0;-0.2362;0.2847;118.0;123.0;-0.2215;-0.5314;1.8185;-0.5133;-0.1373;0.345;0.47;0.495;0.515;0.685;0.0
142.0;0.9595;148.0;0.9867;150.0;1.0274;146.0;1.0;95.0;0.4612;206.0;1.3826;149.0;1.0493;142.0;1.029;165.0;-0.2223;0.2981;99.0;66.0;-0.0572;-0.2811;1.257;-0.4914;-0.184;0.425;0.555;0.605;0.685;0.965;0.0
89.0;0.3708;240.0;1.6438;146.0;1.0139;144.0;0.9114;76.0;0.3319;229.0;1.4312;160.0;1.5534;103.0;0.4239;167.0;-0.2603;0.4919;114.0;53.0;-0.1747;-0.3184;2.0745;-0.5483;0.2948;0.48;0.63;0.685;0.815;0.725;0.0
223.0;1.0276;217.0;0.9476;229.0;1.0505;218.0;2.3956;218.0;1.9292;113.0;1.0561;107.0;0.9727;110.0;0.9735;229.0;-0.0444;0.6316;77.0;152.0;0.5987;-0.2925;2.5744;-0.4032;-0.1627;0.54;0.795;0.82;0.855;0.975;0.0
186.0;1.0333;180.0;1.0;180.0;1.0909;165.0;1.0577;178.0;1.0349;172.0;0.9718;177.0;0.9725;182.0;0.9838;249.0;-0.1979;0.2364;125.0;124.0;-0.1886;-0.4494;1.5613;-0.5695;-0.0973;0.375;0.48;0.505;0.525;0.69;0.0
168.0;0.96;175.0;1.0116;173.0;0.9611;180.0;0.9783;175.0;0.9115;192.0;1.0726;179.0;1.0529;170.0;0.9714;240.0;-0.2087;0.2539;118.0;122.0;-0.225;-0.4653;1.6648;-0.6005;-0.0672;0.38;0.47;0.495;0.515;0.68;0.0
79.0;0.2959;267.0;1.5345;174.0;0.9016;193.0;1.0782;159.0;1.0;159.0;0.9636;165.0;1.1301;146.0;1.058;220.0;-0.1259;0.4072;109.0;111.0;-0.0652;-0.158;2.159;0.2463;0.2463;0.355;0.45;0.495;0.53;0.53;0.0
187.0;0.959;195.0;1.0598;184.0;1.0636;173.0;0.9886;166.0;0.9708;171.0;0.9661;177.0;0.9725;182.0;0.9785;240.0;-0.1781;0.2437;124.0;116.0;-0.1515;-0.4744;1.7315;-0.469;-0.0506;0.375;0.495;0.52;0.54;0.69;0.0
110.0;0.9821;112.0;1.0667;105.0;0.9545;110.0;1.0185;109.0;1.0093;108.0;0.9643;112.0;1.0;112.0;1.0;153.0;-0.313;0.5159;77.0;76.0;-0.1961;-0.6163;2.0101;-1.272;-0.1176;0.305;0.465;0.505;0.55;0.8;0.0
140.0;1.0219;137.0;0.9786;140.0;1.0072;139.0;0.9586;140.0;1.0072;139.0;0.9653;144.0;0.9796;147.0;0.9671;198.0;-0.2565;0.2662;100.0;98.0;-0.1098;-0.2989;1.2843;-0.5248;-0.2882;0.35;0.47;0.505;0.57;0.835;0.0
175.0;1.0802;162.0;1.0658;152.0;1.4206;107.0;0.4693;156.0;0.9398;166.0;0.9379;177.0;0.9944;178.0;1.0171;290.0;-0.1941;0.3394;181.0;109.0;-0.1686;-0.2328;2.0203;-0.4085;0.4978;0.505;0.57;0.625;0.695;0.64;0.0
110.0;1.0377;106.0;0.9725;109.0;0.9732;112.0;1.0;107.0;0.9224;116.0;1.0741;108.0;0.4909;220.0;2.1569;151.0;-0.2192;0.4918;77.0;74.0;-0.2238;-0.5724;2.0405;-0.9607;0.2589;0.31;0.47;0.515;0.56;0.87;0.0
153.0;0.9162;167.0;0.9653;173.0;1.0485;165.0;0.9593;91.0;0.3346;272.0;1.6485;165.0;1.0784;153.0;0.9444;186.0;-0.221;0.4316;123.0;63.0;-0.1942;-0.2936;1.9174;-0.4505;0.2401;0.42;0.605;0.665;0.79;0.7;0.0
138.0;1.0;138.0;0.9718;142.0;1.0143;140.0;1.037;141.0;1.0444;135.0;1.015;133.0;1.0391;128.0;1.0407;197.0;-0.0596;0.2819;99.0;98.0;-0.0103;-0.2797;1.3485;-0.4487;0.3484;0.355;0.465;0.51;0.535;0.755;0.0
156.0;0.9571;163.0;0.9645;169.0;1.0432;162.0;1.0253;166.0;1.0247;162.0;1.0519;154.0;0.9872;156.0;1.0;228.0;-0.315;0.1836;112.0;116.0;-0.2155;-0.5215;1.0721;-0.4614;-0.2586;0.37;0.47;0.495;0.52;0.805;0.0
171.0;1.0892;157.0;1.0064;156.0;0.9936;157.0;0.9345;77.0;0.313;246.0;1.4471;170.0;1.0429;163.0;1.598;165.0;-0.1801;0.4358;112.0;53.0;-0.1225;-0.2114;2.0746;-0.5189;0.2522;0.46;0.63;0.69;0.875;0.73;0.0
115.0;1.0268;112.0;1.0275;109.0;1.0187;107.0;0.964;111.0;1.0091;110.0;1.0185;108.0;0.9908;109.0;0.9478;154.0;-0.1218;0.4687;77.0;77.0;-0.1403;-0.446;2.1455;-0.9435;0.3386;0.3;0.46;0.505;0.55;0.825;0.0
162.0;0.9701;167.0;0.9278;180.0;0.9783;184.0;0.9946;189.0;1.0;189.0;1.0385;182.0;0.9891;184.0;1.0279;269.0;-0.2594;0.2224;137.0;132.0;-0.2907;-0.4664;1.4564;-0.6124;-0.0838;0.36;0.49;0.51;0.53;0.69;0.0
177.0;1.0473;169.0;1.0432;162.0;0.9419;172.0;0.9885;174.0;0.9405;185.0;1.0165;182.0;0.9945;183.0;1.0517;236.0;-0.1854;0.2715;115.0;121.0;-0.205;-0.5057;1.8454;-0.3751;-0.0745;0.38;0.465;0.49;0.51;0.66;0.0
167.0;1.3802;121.0;0.6111;198.0;1.2611;157.0;0.9874;164.0;1.038;158.0;1.026;154.0;0.9872;156.0;0.9512;230.0;-0.2761;0.1789;116.0;114.0;-0.1694;-0.4743;1.1692;-0.3222;-0.2227;0.385;0.48;0.505;0.525;0.87;0.0
169.0;0.9657;175.0;1.0;175.0;0.9669;181.0;1.0169;170.0;1.0;170.0;1.018;167.0;1.0503;159.0;1.0192;246.0;-0.2633;0.2602;128.0;118.0;-0.2904;-0.5429;1.6575;-0.502;-0.1506;0.4;0.5;0.52;0.545;0.695;0.0
127.0;0.9071;140.0;0.8805;159.0;1.0325;154.0;1.0267;164.0;0.877;187.0;0.9492;197.0;1.0649;185.0;1.1012;208.0;-0.2809;0.2364;94.0;114.0;-0.1488;-0.473;1.4355;-0.4079;-0.0388;0.325;0.415;0.455;0.48;0.655;0.0
177.0;1.0412;170.0;1.0366;164.0;0.982;167.0;0.9824;162.0;0.9643;168.0;0.9655;174.0;1.0058;173.0;1.0485;227.0;-0.1881;0.2661;114.0;113.0;-0.1811;-0.4342;1.8073;-0.4732;-0.0319;0.35;0.485;0.505;0.525;0.695;0.0
179.0;1.0229;175.0;0.9831;178.0;1.0471;170.0;1.0366;182.0;1.0055;181.0;1.0226;177.0;0.9568;185.0;0.9439;256.0;-0.2231;0.2372;129.0;127.0;-0.2462;-0.479;1.5428;-0.5818;-0.0847;0.35;0.48;0.505;0.525;0.685;0.0
158.0;0.9693;163.0;1.0;163.0;0.9819;166.0;1.0061;157.0;0.9752;161.0;1.0;161.0;1.0662;151.0;0.9869;216.0;-0.1597;0.1906;107.0;109.0;-0.0515;-0.391;1.201;-0.3003;-0.1436;0.365;0.47;0.5;0.525;0.81;0.0
138.0;1.0;138.0;0.9787;141.0;1.0444;135.0;1.08;145.0;1.0662;136.0;1.0303;132.0;1.0154;130.0;1.0236;208.0;-0.131;0.2862;107.0;101.0;-0.1312;-0.3183;1.2632;-0.5953;0.2912;0.35;0.475;0.515;0.54;0.73;0.0
219.0;1.0529;208.0;0.8851;235.0;2.0982;112.0;1.0667;227.0;1.0413;218.0;0.9909;220.0;0.9955;221.0;0.9866;310.0;-0.277;0.7206;152.0;158.0;2.2067;-0.5795;2.6138;-1.2839;-0.8228;0.49;0.82;0.86;0.96;0.885;0.0
166.0;1.0311;161.0;1.019;158.0;1.0128;156.0;0.9873;152.0;0.95;160.0;0.9816;163.0;1.4818;110.0;0.5473;217.0;-0.2824;0.1905;111.0;106.0;-0.1919;-0.503;1.1821;-0.3932;-0.2349;0.355;0.485;0.51;0.54;0.81;0.0
185.0;1.0571;175.0;1.0417;168.0;0.9492;177.0;1.0412;175.0;0.9831;178.0;1.0;178.0;0.9519;187.0;1.0108;240.0;-0.1541;0.2665;118.0;122.0;-0.2043;-0.4812;1.8955;-0.3798;-0.1035;0.385;0.47;0.495;0.515;0.66;0.0
138.0;0.9517;145.0;1.5934;91.0;0.4417;206.0;1.3377;143.0;0.9533;150.0;1.0204;147.0;1.0;147.0;1.0138;200.0;-0.2262;0.253;100.0;100.0;-0.1167;-0.3317;1.2093;-0.4703;-0.2;0.335;0.46;0.5;0.575;0.81;0.0
160.0;1.0;160.0;1.0526;152.0;0.956;159.0;1.0063;156.0;0.9936;157.0;0.9458;166.0;0.994;167.0;1.0309;218.0;-0.2851;0.1737;109.0;109.0;-0.1833;-0.5037;1.0264;-0.3496;-0.2712;0.38;0.475;0.505;0.525;0.83;0.0
157.0;1.0064;156.0;0.9341;167.0;0.9709;172.0;1.0178;168.0;0.9882;170.0;1.0059;169.0;1.0629;159.0;1.0461;231.0;-0.2517;0.1571;114.0;117.0;-0.1123;-0.4766;1.0006;-0.3834;-0.2698;0.335;0.475;0.495;0.515;0.865;0.0
151.0;1.0203;148.0;1.0;148.0;1.0068;147.0;1.0;155.0;1.0265;151.0;1.0342;146.0;1.0355;141.0;1.0217;210.0;-0.3456;0.2612;102.0;108.0;-0.2379;-0.4356;1.1183;-0.6133;-0.3305;0.32;0.45;0.485;0.565;0.755;0.0
167.0;1.006;166.0;1.0506;158.0;0.9937;159.0;1.0392;162.0;1.0452;155.0;1.0;155.0;0.9873;157.0;0.9812;231.0;-0.245;0.1494;118.0;113.0;-0.1292;-0.4925;;-0.3483;-0.2209;0.395;0.49;0.515;0.535;0.84;0.0
170.0;1.018;167.0;1.0245;163.0;2.0897;78.0;0.3197;161.0;0.9817;164.0;0.9704;169.0;0.9713;174.0;0.956;227.0;-0.1561;0.3887;115.0;112.0;-0.112;-0.1549;2.0727;-0.3845;0.4154;0.345;0.455;0.51;0.6;0.535;0.0
170.0;1.018;167.0;1.0309;162.0;0.9939;163.0;0.9106;169.0;0.9494;178.0;0.9834;181.0;1.0402;174.0;1.0296;235.0;-0.1758;0.2601;117.0;118.0;-0.1836;-0.5012;1.7985;-0.3942;-0.1544;0.34;0.475;0.5;0.52;0.665;0.0
179.0;1.1474;156.0;1.04;150.0;1.0204;147.0;0.9608;138.0;0.9517;145.0;0.9603;151.0;0.8988;168.0;0.9655;198.0;-0.1553;0.3604;102.0;96.0;0.216;-0.1977;1.9941;0.2198;0.2198;0.485;0.47;0.52;0.555;0.555;0.0
150.0;0.9934;151.0;1.0;151.0;1.0067;150.0;1.0204;163.0;1.0654;153.0;1.0132;151.0;0.9869;153.0;0.9871;228.0;-0.3376;0.1401;114.0;114.0;-0.2025;-0.5841;0.8061;-0.4656;-0.332;0.365;0.475;0.5;0.52;0.825;0.0
140.0;0.9722;144.0;0.96;150.0;0.9804;153.0;1.0552;145.0;0.9797;148.0;1.0137;146.0;1.0069;145.0;1.0284;199.0;-0.1285;0.2353;98.0;101.0;-0.0538;-0.2289;1.2453;-0.3436;-0.0687;0.335;0.455;0.495;0.56;0.76;0.0
225.0;2.2059;102.0;0.85;120.0;1.1009;109.0;0.9909;90.0;0.7031;128.0;1.1852;108.0;0.973;111.0;0.9652;211.0;0.0836;0.6188;149.0;62.0;-0.1469;-0.2598;2.7308;-0.4454;-0.4454;0.125;0.165;0.2;0.24;0.24;0.0
178.0;1.0289;173.0;0.9454;183.0;1.0702;171.0;0.9942;163.0;1.0062;162.0;0.9419;172.0;0.9053;190.0;1.0556;239.0;-0.6044;0.2068;125.0;114.0;-0.603;-0.8045;0.8265;-0.9197;-0.4723;0.39;0.5;0.525;0.55;0.915;0.0
154.0;0.9747;158.0;1.026;154.0;0.9747;158.0;0.9461;155.0;0.981;158.0;0.9576;165.0;1.0248;161.0;1.0126;213.0;-0.2261;0.1324;105.0;108.0;-0.1149;-0.456;0.8661;-0.3811;-0.2007;0.365;0.475;0.495;0.515;0.85;0.0
177.0;0.9944;178.0;1.0171;175.0;1.0057;174.0;1.0482;159.0;1.06;150.0;1.0;150.0;0.9677;155.0;0.9936;230.0;-0.2439;0.3745;119.0;111.0;-0.2012;-0.2455;1.8373;-0.4306;0.2967;0.41;0.475;0.52;0.605;0.545;0.0
183.0;0.9946;184.0;1.0055;183.0;1.0223;179.0;1.1049;185.0;1.0511;176.0;1.0115;174.0;0.9457;184.0;0.9534;254.0;-0.2506;0.2562;125.0;129.0;-0.2892;-0.4672;1.737;-0.6071;-0.0743;0.395;0.475;0.495;0.515;0.675;0.0
182.0;1.052;173.0;1.0117;171.0;0.9828;174.0;1.0175;181.0;1.0226;177.0;0.9888;179.0;1.0;179.0;0.9781;244.0;0.0242;0.2428;118.0;126.0;0.0231;-0.1705;1.7859;-0.3256;0.0526;0.33;0.465;0.485;0.505;0.655;0.0
154.0;0.9935;155.0;1.0065;154.0;1.0132;152.0;0.9744;157.0;1.0064;156.0;0.975;160.0;0.9756;164.0;0.988;216.0;-0.2228;0.1698;107.0;109.0;-0.1071;-0.4211;1.2023;-0.3356;-0.1629;0.375;0.475;0.495;0.515;0.815;0.0
172.0;0.9773;176.0;1.0292;171.0;1.0427;164.0;1.025;164.0;0.982;167.0;0.9882;169.0;0.9713;174.0;0.9831;235.0;-0.2393;0.2839;121.0;114.0;-0.2695;-0.5779;1.8189;-0.4719;0.0546;0.36;0.49;0.515;0.54;0.735;0.0
141.0;1.0444;135.0;0.9712;139.0;0.9789;142.0;0.9726;137.0;0.9928;138.0;0.9583;144.0;0.9796;147.0;1.0068;195.0;-0.3711;0.2554;100.0;95.0;-0.1461;-0.503;0.9695;-0.7642;0.1781;0.35;0.48;0.515;0.585;0.53;0.0
110.0;1.028;107.0;0.9554;112.0;1.0182;110.0;1.0092;108.0;0.9391;115.0;0.5275;218.0;0.9864;221.0;0.9779;154.0;-0.0362;0.5629;79.0;75.0;0.1501;-0.2633;2.395;-0.8106;0.6193;0.33;0.475;0.515;0.56;0.795;0.0
150.0;1.0345;145.0;1.0357;140.0;1.0145;138.0;0.9857;139.0;0.9789;142.0;1.0;142.0;1.0;142.0;0.966;199.0;-0.2153;0.2547;102.0;97.0;-0.0811;-0.3007;1.229;-0.5042;-0.1739;0.35;0.475;0.515;0.585;0.795;0.0
149.0;1.7326;86.0;0.455;189.0;1.3897;136.0;0.9927;140.0;0.9929;141.0;1.0217;138.0;1.0073;137.0;0.9648;196.0;-0.2676;0.2591;98.0;98.0;-0.1337;-0.3417;1.2165;-0.5331;-0.2364;0.34;0.465;0.5;0.575;0.815;0.0
135.0;0.9854;137.0;0.9648;142.0;0.9595;148.0;1.0647;145.0;1.0357;140.0;1.037;135.0;0.9783;138.0;1.0455;197.0;-0.0463;0.2735;96.0;101.0;0.04;-0.2416;1.2701;-0.6189;0.3256;0.325;0.45;0.49;0.54;0.725;0.0
222.0;2.0748;107.0;0.9727;110.0;0.5069;217.0;0.9775;220.0;1.0233;215.0;0.9862;218.0;0.9689;225.0;1.0;232.0;-0.4313;0.6185;78.0;154.0;0.0688;-0.6115;2.3451;-0.8318;-0.6998;0.53;0.785;0.81;0.845;0.975;0.0
158.0;0.9461;167.0;0.994;168.0;0.9941;169.0;1.0242;168.0;1.012;166.0;1.0061;165.0;1.0577;156.0;0.975;234.0;-0.2596;0.1549;117.0;117.0;-0.1414;-0.4598;1.046;-0.352;-0.2088;0.375;0.48;0.5;0.52;0.845;0.0
142.0;1.0143;140.0;1.037;135.0;1.0075;134.0;1.0;133.0;1.0391;128.0;1.0407;123.0;1.025;120.0;0.96;187.0;0.0737;0.2937;94.0;93.0;0.0453;-0.1793;1.4449;-0.279;0.5625;0.34;0.465;0.51;0.535;0.755;0.0
144.0;0.9931;145.0;0.9667;150.0;1.0345;145.0;0.9797;149.0;0.9868;151.0;1.0272;147.0;1.0652;138.0;0.9718;202.0;-0.2543;0.2487;98.0;104.0;-0.083;-0.4159;1.1923;-0.5038;-0.1475;0.33;0.455;0.485;0.56;0.785;0.0
225.0;1.0514;214.0;0.9772;219.0;1.0186;215.0;1.9369;217.0;1.0;217.0;0.9954;218.0;1.964;111.0;0.9737;304.0;-0.2863;0.6424;153.0;151.0;1.6493;-0.4333;2.3491;-0.64;-0.5263;0.5;0.835;0.86;0.89;0.99;0.0
142.0;1.084;131.0;1.0155;129.0;0.9923;130.0;1.0;135.0;1.0547;128.0;1.0159;126.0;1.0161;124.0;0.9841;190.0;-0.2285;0.2499;96.0;94.0;-0.184;-0.4238;1.4375;-0.3729;-0.015;0.36;0.45;0.51;0.54;0.765;0.0
167.0;1.006;166.0;1.044;159.0;1.0325;154.0;0.9747;159.0;1.0392;153.0;1.02;150.0;0.9677;155.0;0.981;226.0;-0.2972;0.1591;115.0;111.0;-0.1362;-0.5336;0.8862;-0.4435;-0.321;0.4;0.49;0.51;0.53;0.84;0.0
160.0;1.4286;112.0;0.5463;205.0;1.213;169.0;1.0629;163.0;0.9879;165.0;1.0645;155.0;1.0065;154.0;0.9686;228.0;-0.3757;0.1599;114.0;114.0;-0.2788;-0.5629;0.8959;-0.4945;-0.3153;0.36;0.475;0.5;0.52;0.825;0.0
160.0;1.0191;157.0;0.9691;162.0;1.0;162.0;0.9878;160.0;0.9581;167.0;0.994;168.0;0.9882;170.0;1.0241;222.0;-0.2981;0.1707;110.0;112.0;-0.1935;-0.502;1.141;-0.3371;-0.2798;0.38;0.475;0.5;0.52;0.855;0.0
185.0;1.0452;177.0;1.0291;172.0;1.0238;168.0;0.96;168.0;0.9655;174.0;1.0235;170.0;0.9714;175.0;0.9115;235.0;-0.2508;0.2568;118.0;117.0;-0.2766;-0.5057;1.6701;-0.5996;-0.1591;0.34;0.48;0.505;0.525;0.69;0.0
173.0;0.9665;179.0;0.989;181.0;1.0;181.0;0.9526;171.0;0.9771;175.0;1.0606;165.0;1.0377;159.0;0.9755;244.0;-0.2522;0.2359;125.0;119.0;-0.2754;-0.472;1.4788;-0.6095;-0.1048;0.405;0.49;0.515;0.535;0.71;0.0
169.0;0.9826;172.0;1.0238;168.0;0.9492;177.0;1.0412;170.0;1.018;167.0;1.0503;159.0;1.0127;157.0;0.9874;238.0;-0.2273;0.2624;120.0;118.0;-0.235;-0.5017;1.6857;-0.3875;-0.1757;0.365;0.485;0.505;0.53;0.68;0.0
137.0;0.9928;138.0;1.0299;134.0;0.9926;135.0;1.0075;128.0;1.0492;122.0;1.0252;119.0;0.9917;120.0;0.9677;184.0;-0.1978;0.2999;95.0;89.0;-0.1069;-0.439;1.127;-0.6648;0.224;0.36;0.465;0.525;0.55;0.775;0.0
139.0;0.9521;146.0;0.9733;150.0;1.0067;149.0;1.0205;141.0;0.9463;149.0;1.0276;145.0;1.0069;144.0;1.0;198.0;-0.2756;0.2693;100.0;98.0;-0.1689;-0.3927;1.2464;-0.5364;-0.2579;0.34;0.47;0.5;0.58;0.81;0.0
149.0;0.9868;151.0;1.0272;147.0;1.0652;138.0;0.9718;147.0;0.9932;148.0;1.0571;140.0;1.0294;136.0;0.9855;204.0;-0.2327;0.2488;102.0;102.0;-0.071;-0.2775;1.2302;-0.4918;-0.2408;0.345;0.47;0.5;0.565;0.82;0.0
165.0;0.9763;169.0;0.9883;171.0;0.9716;176.0;1.0;171.0;0.9942;172.0;0.9885;174.0;1.0296;169.0;1.0242;240.0;-0.279;0.2628;121.0;119.0;-0.3089;-0.584;1.7175;-0.5636;-0.2306;0.38;0.48;0.505;0.525;0.675;0.0
164.0;0.982;167.0;0.9824;170.0;1.0559;161.0;1.0387;166.0;1.0184;163.0;1.0449;156.0;0.9689;161.0;0.9817;234.0;-0.2801;0.1905;118.0;116.0;-0.1698;-0.4788;1.1672;-0.403;-0.2166;0.395;0.485;0.51;0.53;0.825;0.0
111.0;0.5023;221.0;0.9779;226.0;2.0926;108.0;0.9818;107.0;0.4842;221.0;2.0275;109.0;1.1122;98.0;0.417;152.0;-0.2351;0.5532;78.0;74.0;-0.0678;-0.5757;1.9487;-1.2643;-0.022;0.34;0.47;0.515;0.56;0.825;0.0
182.0;1.04;175.0;0.9887;177.0;1.0057;176.0;0.9724;174.0;0.9508;183.0;0.9734;188.0;1.0444;180.0;1.0588;244.0;-0.254;0.2478;123.0;121.0;-0.2543;-0.5188;1.6261;-0.4212;-0.1512;0.36;0.48;0.505;0.53;0.68;0.0
144.0;1.0213;141.0;1.0292;137.0;0.958;143.0;1.0214;141.0;1.0144;139.0;1.0146;137.0;0.9384;146.0;0.9605;198.0;-0.1522;0.2705;100.0;98.0;0.0162;-0.2271;1.3482;-0.4579;-0.1242;0.345;0.465;0.505;0.58;0.765;0.0
175.0;0.9358;187.0;0.9894;189.0;1.0618;178.0;1.023;170.0;1.0241;166.0;0.9881;168.0;0.9333;180.0;0.9836;236.0;-0.2343;0.2484;118.0;118.0;-0.2863;-0.546;1.5247;-0.6013;-0.1452;0.335;0.48;0.505;0.525;0.685;0.0
141.0;0.9792;144.0;1.007;143.0;0.9662;148.0;0.9933;141.0;0.94;150.0;0.9868;152.0;1.0133;150.0;1.0345;196.0;-0.2877;0.2832;98.0;98.0;-0.1983;-0.418;1.0849;-0.7405;-0.1207;0.365;0.47;0.5;0.58;0.53;0.0
176.0;1.0233;172.0;1.0299;167.0;1.0245;163.0;0.9879;138.0;1.0;138.0;1.0073;137.0;1.0301;133.0;0.9852;196.0;0.0694;0.4592;100.0;96.0;0.3369;0.0396;3.0416;0.0081;0.1664;0.37;0.475;0.51;0.535;0.54;0.0
125.0;0.9921;126.0;0.9618;131.0;0.9776;134.0;1.0075;124.0;1.0081;123.0;0.9685;127.0;0.9695;131.0;0.9225;174.0;-0.0171;0.2832;88.0;86.0;0.1149;-0.2121;1.253;-0.5602;0.3309;0.35;0.475;0.51;0.535;0.75;0.0
164.0;1.0123;162.0;0.9701;167.0;0.9278;180.0;0.9783;196.0;1.037;189.0;1.0;189.0;1.0385;182.0;0.9891;266.0;-0.2591;0.2348;129.0;137.0;-0.2241;-0.5141;1.6194;-0.5485;-0.2006;0.355;0.46;0.485;0.505;0.65;0.0
148.0;1.0207;145.0;0.9603;151.0;0.9869;153.0;1.0066;152.0;1.0133;150.0;1.0;150.0;1.0;150.0;1.0;206.0;-0.4242;0.1673;100.0;106.0;-0.2627;-0.6654;0.7952;-0.5668;-0.4412;0.315;0.46;0.485;0.51;0.835;0.0
174.0;1.0;174.0;1.0116;172.0;0.9609;179.0;0.9323;185.0;0.9343;198.0;1.0879;182.0;0.9785;186.0;1.0508;252.0;-0.3954;0.2748;123.0;129.0;-0.3906;-0.6052;1.6361;-0.4904;-0.2829;0.385;0.47;0.49;0.515;0.655;0.0
159.0;1.0063;158.0;0.9875;160.0;1.0323;155.0;0.9748;162.0;1.0189;159.0;0.9636;165.0;0.988;167.0;0.994;224.0;-0.2166;0.2681;111.0;113.0;-0.2656;-0.5117;1.7347;-0.4284;-0.0114;0.32;0.47;0.495;0.52;0.71;0.0
168.0;0.9882;170.0;1.0559;161.0;0.9877;163.0;0.9588;185.0;0.9113;203.0;1.041;195.0;1.0894;179.0;1.0113;257.0;-0.2551;0.2177;128.0;129.0;-0.285;-0.484;1.3281;-0.6007;-0.2202;0.39;0.475;0.5;0.52;0.665;0.0
171.0;0.9771;175.0;0.9943;176.0;0.9462;186.0;1.022;184.0;1.0;184.0;1.0514;175.0;1.0174;172.0;0.9663;254.0;-0.2189;0.2607;126.0;128.0;-0.253;-0.4731;1.8293;-0.4748;-0.1759;0.39;0.48;0.5;0.52;0.67;0.0
167.0;0.9653;173.0;0.983;176.0;1.0115;174.0;1.0675;170.0;1.0366;164.0;1.0186;161.0;0.9699;166.0;0.994;238.0;-0.2089;0.257;120.0;118.0;-0.2398;-0.5221;1.6862;-0.4885;-0.0649;0.39;0.48;0.505;0.525;0.705;0.0
198.0;1.2222;162.0;1.0125;160.0;1.039;154.0;0.9809;158.0;0.9875;160.0;0.9816;163.0;0.976;167.0;0.9824;222.0;-0.275;0.1666;112.0;110.0;-0.1459;-0.5126;;-0.3882;-0.2573;0.385;0.485;0.505;0.525;0.8;0.0
145.0;0.9864;147.0;1.0426;141.0;1.0217;138.0;1.0698;124.0;1.0;124.0;1.0081;123.0;0.9762;126.0;0.9692;172.0;-0.1176;0.2895;86.0;86.0;-0.0668;-0.3409;1.1973;-0.5619;0.3147;0.325;0.435;0.5;0.53;0.77;0.0
143.0;0.9728;147.0;1.0;147.0;1.0138;145.0;1.0662;131.0;0.9632;136.0;1.0226;133.0;1.0556;126.0;1.05;177.0;-0.2907;0.2806;86.0;91.0;-0.2329;-0.5286;1.0137;-0.7234;0.1843;0.315;0.43;0.49;0.52;0.77;0.0
184.0;1.011;182.0;1.052;173.0;1.0058;172.0;0.9829;165.0;0.9429;175.0;0.9722;180.0;1.0;180.0;0.9677;231.0;-0.283;0.2718;116.0;115.0;-0.308;-0.6544;1.7816;-0.5684;-0.2028;0.335;0.48;0.505;0.525;0.675;0.0
172.0;0.9609;179.0;0.9781;183.0;0.9946;184.0;1.0055;181.0;1.0056;180.0;0.973;185.0;1.0511;176.0;1.0115;256.0;-0.2903;0.2381;130.0;126.0;-0.3003;-0.527;1.4676;-0.5355;-0.2303;0.345;0.485;0.51;0.535;0.68;0.0
109.0;0.982;111.0;0.9487;117.0;1.3929;84.0;0.6269;111.0;0.9487;117.0;1.0734;109.0;0.9909;110.0;1.0;156.0;-0.0018;0.5067;79.0;77.0;0.0524;-0.4232;2.2169;-0.901;0.609;0.325;0.465;0.505;0.55;0.83;0.0
185.0;1.0452;177.0;0.9725;182.0;0.9891;184.0;1.0166;179.0;1.0;179.0;0.989;181.0;1.0;181.0;1.0647;244.0;-0.2129;0.2404;119.0;125.0;-0.1924;-0.4689;1.5504;-0.4967;-0.1074;0.36;0.465;0.49;0.51;0.67;0.0
156.0;0.9176;170.0;1.0059;169.0;1.0;169.0;0.9657;178.0;1.0;178.0;1.0409;171.0;0.9942;172.0;1.0178;249.0;-0.2401;0.2706;125.0;124.0;-0.2809;-0.5057;1.754;-0.4543;0.093;0.345;0.48;0.505;0.525;0.715;0.0
182.0;1.0111;180.0;1.0;180.0;1.0465;172.0;0.9556;169.0;0.9769;173.0;0.9351;185.0;1.0393;178.0;1.023;239.0;-0.1722;0.2351;121.0;118.0;-0.2041;-0.4443;1.669;-0.4634;-0.1192;0.405;0.485;0.51;0.53;0.675;0.0
148.0;0.961;154.0;1.2623;122.0;0.5951;205.0;1.1714;163.0;0.9939;164.0;0.9762;168.0;;163.0;1.0516;226.0;-0.2472;0.1459;112.0;114.0;-0.1296;-0.4376;0.9566;-0.368;-0.2399;0.38;0.475;0.495;0.515;0.8;0.0
147.0;0.98;150.0;1.0274;146.0;1.0429;140.0;1.0145;144.0;1.0286;140.0;0.9859;142.0;1.0;142.0;0.9861;202.0;-0.1727;0.2677;102.0;100.0;-0.032;-0.249;1.2988;-0.4322;-0.1565;0.345;0.47;0.51;0.59;0.755;0.0
150.0;0.974;154.0;0.9809;157.0;0.9691;162.0;0.9205;163.0;0.976;167.0;1.0183;164.0;1.0;164.0;2.0759;219.0;-0.1394;0.2971;105.0;114.0;0.1343;-0.1519;1.6897;-0.3145;0.0417;0.44;0.415;0.48;0.585;0.51;0.0
169.0;0.9494;178.0;1.0;178.0;1.0289;173.0;0.9454;182.0;1.0168;179.0;1.0982;163.0;1.0062;162.0;0.9419;255.0;-0.607;0.2314;128.0;127.0;-0.5945;-0.8123;1.2153;-0.9607;-0.5159;0.34;0.48;0.505;0.525;0.675;0.0
147.0;1.0068;146.0;1.0355;141.0;1.0;141.0;0.9592;141.0;0.9724;145.0;0.9932;146.0;1.6222;90.0;0.4327;197.0;-0.1993;0.259;99.0;98.0;-0.0765;-0.2679;1.27;-0.473;-0.1383;0.345;0.47;0.505;0.575;0.785;0.0
148.0;0.9801;151.0;1.0134;149.0;1.0493;142.0;1.0441;147.0;1.0138;145.0;1.0211;142.0;1.0365;137.0;0.9786;206.0;-0.2425;0.2451;104.0;102.0;-0.1053;-0.2778;1.1134;-0.4885;-0.2528;0.35;0.475;0.505;0.59;0.83;0.0
109.0;0.9732;112.0;1.0275;109.0;0.9732;112.0;1.0467;95.0;0.754;126.0;1.299;97.0;0.7951;122.0;1.0991;143.0;-0.1577;0.4848;77.0;66.0;-0.1511;-0.4269;1.9933;-1.0288;0.3818;0.34;0.5;0.54;0.59;0.89;0.0
185.0;1.0;185.0;1.0511;176.0;1.0057;175.0;0.9511;176.0;0.9514;185.0;1.0054;184.0;1.0337;178.0;1.0056;244.0;-0.1603;0.2491;121.0;123.0;-0.1721;-0.4381;1.6484;-0.5365;0.0906;0.34;0.475;0.5;0.52;0.7;0.0
139.0;0.9789;142.0;1.0;142.0;0.9793;145.0;0.9932;139.0;0.9392;148.0;0.9801;151.0;1.0203;148.0;1.0;193.0;-0.2186;0.2674;96.0;97.0;-0.0998;-0.3058;1.2338;-0.4816;-0.2086;0.33;0.46;0.5;0.57;0.815;0.0
143.0;1.0;143.0;1.3491;106.0;0.5248;202.0;1.2469;162.0;0.9701;167.0;1.0;167.0;1.0309;162.0;1.0728;220.0;-0.277;0.3473;107.0;113.0;-0.2334;-0.3462;1.7595;0.0181;0.0181;0.3;0.43;0.495;0.525;0.525;0.0
177.0;0.9888;179.0;0.9835;182.0;1.0055;181.0;1.0462;172.0;1.0178;169.0;1.0305;164.0;0.948;173.0;0.9558;241.0;-0.3448;0.2576;121.0;120.0;-0.3713;-0.6464;1.6188;-0.6316;-0.1514;0.395;0.48;0.5;0.52;0.695;0.0
149.0;1.042;143.0;0.9728;147.0;1.0;147.0;1.0138;124.0;0.9466;131.0;0.9632;136.0;1.0226;133.0;1.0556;175.0;-0.3249;0.2383;89.0;86.0;-0.2482;-0.5554;1.3135;-0.5302;-0.1716;0.33;0.455;0.515;0.545;0.78;0.0
145.0;0.9932;146.0;1.0429;140.0;0.9929;141.0;0.9792;141.0;0.9792;144.0;1.007;143.0;0.9662;148.0;0.9933;198.0;-0.2836;0.2509;100.0;98.0;-0.1583;-0.361;1.193;-0.5311;-0.1617;0.345;0.47;0.505;0.575;0.76;0.0
159.0;1.0461;152.0;0.9441;161.0;1.0321;156.0;1.0;154.0;0.9448;163.0;1.0124;161.0;1.0062;160.0;0.9639;214.0;-0.2959;0.1647;107.0;107.0;-0.2235;-0.5459;1.0628;-0.404;-0.2096;0.38;0.48;0.505;0.525;0.825;0.0
106.0;0.9815;108.0;0.9474;114.0;0.9744;117.0;1.0833;110.0;0.991;111.0;0.9911;112.0;1.3333;84.0;0.6462;151.0;-0.0099;0.4433;74.0;77.0;0.002;-0.3407;1.9096;-0.7929;0.4545;0.305;0.455;0.495;0.535;0.795;0.0
157.0;0.9691;162.0;1.0189;159.0;1.06;150.0;1.0417;143.0;1.0142;141.0;1.0292;137.0;1.0379;132.0;1.0233;194.0;-0.1844;0.1426;94.0;100.0;-0.0773;-0.1513;0.8399;-0.1786;-0.182;0.365;0.46;0.485;0.515;0.525;0.0
176.0;1.0;176.0;0.9944;177.0;0.9725;182.0;1.0282;177.0;1.0172;174.0;1.0175;171.0;1.0364;165.0;0.9483;244.0;-0.1651;0.266;121.0;123.0;-0.1672;-0.389;1.7669;-0.4068;-0.0675;0.345;0.475;0.5;0.52;0.675;0.0
160.0;0.9302;172.0;1.0058;171.0;1.0621;161.0;1.019;172.0;1.0617;162.0;1.0658;152.0;0.9682;157.0;0.9874;238.0;-0.3576;0.1955;118.0;120.0;-0.2451;-0.5874;1.1408;-0.4768;-0.2932;0.375;0.47;0.495;0.52;0.83;0.0
79.0;1.0822;73.0;0.4124;177.0;1.5259;116.0;0.5156;113.0;1.0089;112.0;1.0667;105.0;0.9459;111.0;0.9737;158.0;0.4418;0.4776;79.0;79.0;0.3929;0.0316;2.5139;-0.4245;0.9525;0.315;0.47;0.51;0.55;0.785;0.0
188.0;1.0217;184.0;1.011;182.0;1.0111;180.0;1.0;177.0;1.0231;173.0;1.0237;169.0;0.9769;173.0;0.9351;251.0;-0.2595;0.2296;128.0;123.0;-0.2716;-0.464;1.4;-0.6446;-0.1952;0.355;0.49;0.515;0.535;0.685;0.0
154.0;1.0267;150.0;0.9677;155.0;1.0403;149.0;1.1037;185.0;1.1012;168.0;1.12;150.0;1.087;138.0;1.0147;266.0;-0.2532;0.2455;137.0;129.0;-0.2434;-0.343;1.6149;-0.2188;-0.051;0.39;0.47;0.515;0.535;0.685;0.0
267.0;1.5345;174.0;0.9016;193.0;1.0782;179.0;1.1474;159.0;0.9636;165.0;1.1301;146.0;1.058;138.0;0.9517;222.0;-0.1377;0.3512;111.0;111.0;-0.0462;-0.1435;1.9881;-0.343;0.212;0.365;0.46;0.505;0.6;0.535;0.0
178.0;1.0409;171.0;0.9884;173.0;1.0359;167.0;0.9543;168.0;0.9882;170.0;0.9497;179.0;0.9676;185.0;1.0571;237.0;-0.3244;0.267;120.0;117.0;-0.3706;-0.5491;1.809;-0.548;-0.1832;0.395;0.49;0.51;0.53;0.685;0.0
180.0;1.0345;174.0;1.0058;173.0;1.0;173.0;0.9886;173.0;1.0117;171.0;0.9553;179.0;0.9728;184.0;1.076;239.0;-0.2379;0.2798;118.0;121.0;-0.2394;-0.487;1.9092;-0.4478;-0.0714;0.34;0.475;0.495;0.515;0.67;0.0
124.0;0.5714;217.0;1.9908;109.0;0.982;111.0;0.9823;101.0;0.8417;120.0;1.0909;110.0;0.991;111.0;1.0374;146.0;-0.2762;0.5568;76.0;70.0;-0.2057;-0.4836;2.1129;-1.2307;0.4303;0.305;0.48;0.525;0.57;0.9;0.0
174.0;0.9457;184.0;1.0455;176.0;1.0539;167.0;1.0;183.0;1.0398;176.0;0.9724;181.0;1.0462;173.0;0.9611;255.0;-0.3136;0.2702;127.0;128.0;-0.3458;-0.5862;1.6356;-0.5037;-0.2069;0.385;0.48;0.5;0.525;0.675;0.0
167.0;1.0;167.0;0.9653;173.0;1.0176;170.0;1.0429;175.0;1.0294;170.0;1.018;167.0;1.0121;165.0;0.9429;240.0;-0.2885;0.2794;118.0;122.0;-0.339;-0.6184;1.7876;-0.5502;-0.0083;0.38;0.47;0.495;0.515;0.695;0.0
154.0;1.0;154.0;0.9686;159.0;0.9695;164.0;0.9939;166.0;0.9651;172.0;1.8495;93.0;0.3924;237.0;1.5096;237.0;-0.211;0.4038;121.0;116.0;-0.1551;-0.2144;2.1255;-0.4427;0.386;0.345;0.47;0.515;0.635;0.54;0.0
207.0;1.4577;142.0;1.029;138.0;0.9857;140.0;0.979;140.0;1.0219;137.0;0.9856;139.0;0.9521;146.0;0.9605;197.0;-0.2503;0.2679;99.0;98.0;-0.114;-0.3416;1.2162;-0.5368;-0.181;0.345;0.47;0.505;0.575;0.785;0.0
136.0;0.9927;137.0;1.0148;135.0;1.0075;134.0;0.964;133.0;1.0076;132.0;0.9496;139.0;0.9205;151.0;0.9934;186.0;-0.1064;0.2906;93.0;93.0;0.0403;-0.3318;1.2322;-0.5523;0.2762;0.345;0.45;0.5;0.525;0.74;0.0
161.0;1.0662;151.0;1.0134;149.0;0.943;158.0;0.9576;177.0;0.9833;180.0;0.9783;184.0;1.0;184.0;0.9892;242.0;-0.1053;0.2396;119.0;123.0;-0.0584;-0.3728;1.6938;-0.4338;0.0433;0.36;0.47;0.495;0.515;0.67;0.0
136.0;1.0382;131.0;1.0397;126.0;1.0161;124.0;1.0081;135.0;1.0227;132.0;1.0154;130.0;0.9848;132.0;1.0;189.0;-0.0568;0.2746;95.0;94.0;0.0518;-0.2531;1.2478;-0.5899;0.3661;0.355;0.45;0.505;0.56;0.74;0.0
169.0;0.9826;172.0;1.0299;167.0;1.0245;163.0;1.0252;135.0;0.7105;190.0;1.2025;158.0;1.0064;157.0;0.9691;212.0;-0.2833;0.1741;118.0;94.0;-0.1895;-0.5232;1.0211;-0.4773;-0.2704;0.425;0.53;0.555;0.58;0.905;0.0
181.0;1.0169;178.0;0.9468;188.0;1.0217;184.0;1.0455;182.0;1.0282;177.0;1.0351;171.0;0.9884;173.0;0.9665;260.0;-0.3186;0.2588;133.0;127.0;-0.3166;-0.5675;1.6689;-0.5124;-0.2166;0.35;0.49;0.51;0.53;0.68;0.0
138.0;0.9787;141.0;1.0444;135.0;1.08;125.0;0.9615;136.0;1.0303;132.0;1.0154;130.0;1.0236;127.0;0.9845;196.0;-0.3011;0.3352;101.0;95.0;-0.1211;-0.3588;1.118;-0.7127;-0.1861;0.295;0.495;0.525;0.545;0.77;0.0
170.0;0.9659;176.0;0.9514;185.0;0.9585;193.0;1.0321;191.0;1.067;179.0;1.017;176.0;0.9832;179.0;1.017;264.0;-0.271;0.2429;131.0;133.0;-0.2891;-0.5056;1.533;-0.541;-0.1372;0.39;0.475;0.5;0.52;0.67;0.0
176.0;1.0602;166.0;1.0573;157.0;1.9873;79.0;0.2959;147.0;0.9608;153.0;0.9745;157.0;0.9874;159.0;1.0;207.0;-0.0573;0.3512;105.0;102.0;-0.0552;-0.1051;2.0396;0.2014;0.2014;0.39;0.46;0.51;0.54;0.54;0.0
165.0;0.9821;168.0;1.0307;163.0;1.0382;157.0;1.0261;161.0;1.019;158.0;1.0533;150.0;0.9317;161.0;0.9583;224.0;-0.3513;0.1761;112.0;112.0;-0.2721;-0.5379;0.9918;-0.5495;-0.2608;0.345;0.48;0.505;0.53;0.835;0.0
204.0;1.5;136.0;1.4624;93.0;0.4697;198.0;1.2375;137.0;0.9648;142.0;0.9861;144.0;1.2308;117.0;0.5021;186.0;-0.2427;0.3912;91.0;95.0;-0.1708;-0.2413;1.7425;-0.4115;0.2348;0.31;0.445;0.495;0.595;0.525;0.0
135.0;0.9712;139.0;1.0692;130.0;1.04;125.0;0.9843;137.0;1.0458;131.0;1.0;131.0;0.9924;132.0;0.9925;193.0;-0.2243;0.2847;98.0;95.0;-0.1233;-0.4097;1.09;-0.5996;0.0083;0.35;0.465;0.515;0.54;0.73;0.0
126.0;0.9333;135.0;0.9926;136.0;1.0226;133.0;1.0;138.0;1.0299;134.0;0.9781;137.0;0.9716;141.0;1.0602;189.0;-0.138;0.2488;93.0;96.0;0.0657;-0.2815;1.4987;-0.3773;-0.0383;0.335;0.46;0.495;0.52;0.675;0.0
171.0;0.9607;178.0;1.0;178.0;1.023;174.0;0.9943;176.0;1.0233;172.0;0.9885;174.0;1.0058;173.0;0.9665;256.0;-0.1839;0.2559;133.0;123.0;-0.1599;-0.502;1.7971;-0.4602;-0.1674;0.38;0.495;0.52;0.54;0.675;0.0
163.0;0.9939;164.0;0.9647;170.0;1.018;167.0;0.9709;169.0;0.9826;172.0;1.0238;168.0;0.9492;177.0;1.0412;230.0;-0.1723;0.2828;112.0;118.0;-0.1775;-0.5392;1.8213;-0.4457;-0.1447;0.33;0.46;0.49;0.51;0.66;0.0
147.0;1.0;147.0;1.0068;146.0;0.9669;151.0;0.9805;155.0;1.0131;153.0;0.9562;160.0;0.9816;163.0;1.0188;215.0;-0.3618;0.1387;107.0;108.0;-0.2547;-0.5987;0.7694;-0.4845;-0.3427;0.38;0.475;0.5;0.52;0.83;0.0
164.0;1.0186;161.0;0.9817;164.0;1.0061;163.0;0.9939;160.0;0.9756;164.0;0.9704;169.0;0.9826;172.0;1.0361;221.0;-0.1758;0.3011;109.0;112.0;-0.1988;-0.5581;1.9439;-0.4247;0.0468;0.325;0.47;0.495;0.52;0.71;0.0
148.0;1.0068;147.0;1.0;147.0;1.0576;139.0;0.9789;146.0;1.0355;141.0;1.0217;138.0;1.0;138.0;0.9388;207.0;-0.2933;0.254;105.0;102.0;-0.1472;-0.3654;1.0868;-0.5621;-0.29;0.355;0.475;0.51;0.585;0.815;0.0
161.0;1.0321;156.0;1.0;156.0;0.9936;157.0;0.9691;154.0;0.9872;156.0;0.963;162.0;0.9529;170.0;1.0303;219.0;-0.2781;0.1634;112.0;107.0;-0.1659;-0.4275;1.0809;-0.3632;-0.2402;0.39;0.495;0.515;0.535;0.875;0.0
139.0;0.9392;148.0;1.0423;142.0;0.9861;144.0;1.0;140.0;1.037;135.0;0.9854;137.0;1.0;137.0;0.9928;198.0;-0.092;0.2247;100.0;98.0;-0.0868;-0.2633;1.5311;-0.2649;0.0692;0.33;0.47;0.51;0.54;0.76;0.0
184.0;1.0514;175.0;1.0938;160.0;1.0256;156.0;0.9811;156.0;1.0196;153.0;0.9444;162.0;1.8621;87.0;0.3308;225.0;-0.1448;0.424;116.0;109.0;-0.0779;-0.1455;2.3335;-0.3434;0.0639;0.345;0.48;0.52;0.61;0.565;0.0
178.0;0.9418;189.0;1.0442;181.0;0.9891;183.0;1.0055;174.0;0.9775;178.0;1.0409;171.0;1.0364;165.0;0.9763;246.0;-0.2481;0.2406;125.0;121.0;-0.2952;-0.5065;1.4756;-0.663;-0.1288;0.34;0.485;0.51;0.53;0.69;0.0
176.0;1.0233;172.0;0.9829;175.0;1.0174;172.0;0.9348;176.0;0.9724;181.0;0.9526;190.0;1.0615;179.0;1.017;246.0;-0.2068;0.2593;123.0;123.0;-0.227;-0.4548;1.8763;-0.4776;0.0434;0.34;0.48;0.5;0.52;0.685;0.0
214.0;0.9469;226.0;1.0415;217.0;1.0093;215.0;0.9954;109.0;0.982;111.0;0.9823;113.0;1.0367;109.0;0.9646;227.0;-0.4976;0.7965;151.0;76.0;1.0602;-0.6959;2.538;-1.6603;-1.1331;0.16;0.135;0.19;0.3;0.23;0.0
162.0;0.9939;163.0;1.0316;158.0;1.0464;151.0;0.9742;143.0;1.0;143.0;0.9862;145.0;0.9295;156.0;0.963;207.0;-0.2621;0.4322;107.0;100.0;-0.1756;-0.2353;2.1629;-0.4295;0.1369;0.39;0.475;0.52;0.61;0.55;0.0
174.0;1.0116;172.0;1.0299;167.0;1.0245;163.0;0.9477;162.0;0.9939;163.0;0.9106;179.0;1.0229;175.0;1.0355;229.0;-0.1882;0.2645;116.0;113.0;-0.1927;-0.4677;1.7417;-0.41;-0.1299;0.355;0.485;0.51;0.535;0.685;0.0
125.0;0.947;132.0;0.9496;139.0;1.0296;135.0;0.9783;127.0;1.041;122.0;1.0252;119.0;1.0259;116.0;0.9831;176.0;-0.2727;0.2962;88.0;88.0;-0.2931;-0.5352;0.9467;-0.7559;0.2259;0.31;0.42;0.5;0.53;0.78;0.0
131.0;1.0;131.0;1.0077;130.0;0.9559;136.0;0.951;118.0;0.9593;123.0;0.9919;124.0;0.9612;129.0;0.9773;164.0;-0.009;0.2734;82.0;82.0;0.1374;-0.1929;1.2465;-0.4311;0.296;0.33;0.465;0.505;0.53;0.755;0.0
226.0;1.0273;220.0;1.9469;113.0;1.0561;107.0;0.9817;220.0;0.991;222.0;0.9867;225.0;1.009;223.0;1.0276;242.0;-0.5488;0.8783;88.0;154.0;-0.2693;-0.5999;2.6055;-1.0922;-1.0124;0.69;0.755;0.81;0.845;0.985;0.0
222.0;2.0182;110.0;0.4955;222.0;1.8814;118.0;1.1028;111.0;1.0183;109.0;0.982;111.0;0.4978;223.0;1.0;158.0;-0.1919;0.4749;81.0;77.0;-0.0976;-0.4845;1.8477;-1.1638;0.1404;0.345;0.48;0.515;0.56;0.855;0.0
158.0;0.9814;161.0;0.936;172.0;1.0058;171.0;1.0179;167.0;0.9882;169.0;1.0305;164.0;1.0513;156.0;1.013;230.0;-0.3095;0.1473;114.0;116.0;-0.2578;-0.4637;0.9191;-0.4381;-0.2315;0.37;0.48;0.5;0.52;0.83;0.0
179.0;1.017;176.0;1.0;176.0;1.0353;170.0;1.018;173.0;1.0485;165.0;1.0;165.0;0.9763;169.0;0.9548;243.0;-0.1555;0.254;122.0;121.0;-0.1913;-0.4383;1.7877;-0.3858;0.0286;0.335;0.48;0.505;0.525;0.7;0.0
147.0;1.0352;142.0;1.0143;140.0;0.9929;141.0;1.0;143.0;1.007;142.0;1.0143;140.0;0.9655;145.0;0.9732;202.0;-0.2762;0.2742;102.0;100.0;-0.1102;-0.3794;1.2447;-0.5629;-0.26;0.355;0.475;0.51;0.58;0.825;0.0
153.0;0.9444;162.0;1.8621;87.0;0.3308;263.0;1.5562;155.0;0.9688;160.0;1.0191;157.0;1.0608;148.0;1.0496;262.0;-0.2357;0.4026;154.0;108.0;-0.2214;-0.3239;2.1469;-0.5312;-0.2065;0.44;0.55;0.59;0.675;0.635;0.0
179.0;0.989;181.0;1.0343;175.0;1.0294;170.0;0.9659;171.0;0.9448;181.0;1.0402;174.0;1.0175;171.0;0.9771;242.0;-0.2387;0.2334;123.0;119.0;-0.248;-0.4296;1.4874;-0.6087;-0.1563;0.355;0.49;0.51;0.53;0.68;0.0
166.0;1.1216;148.0;0.9801;151.0;0.9742;155.0;0.9451;148.0;0.961;154.0;1.2623;122.0;0.5951;205.0;1.1714;211.0;-0.2563;0.1603;108.0;103.0;-0.1127;;1.0496;-0.3443;-0.1994;0.38;0.49;0.515;0.535;0.82;0.0
158.0;0.9875;160.0;0.9756;164.0;1.0;164.0;0.9704;168.0;0.9882;170.0;1.0303;165.0;0.9821;168.0;1.0182;228.0;-0.2675;0.1719;111.0;117.0;-0.1355;-0.5286;1.1557;-0.3161;-0.2314;0.365;0.465;0.49;0.51;0.83;0.0
160.0;1.0191;157.0;1.0608;148.0;1.0496;141.0;0.9658;165.0;2.1429;77.0;0.3195;241.0;1.4345;168.0;0.9711;230.0;-0.275;0.3931;115.0;115.0;-0.2224;-0.2928;2.0088;-0.4808;0.2666;0.33;0.465;0.505;0.62;0.53;0.0
122.0;0.6816;179.0;1.0848;165.0;0.9763;169.0;1.0;162.0;1.0062;161.0;0.9699;166.0;1.0375;160.0;1.0526;226.0;-0.2682;0.2068;113.0;113.0;-0.1383;-0.4973;1.2577;-0.4168;-0.262;0.34;0.475;0.505;0.525;0.85;0.0
215.0;2.1078;102.0;0.8361;122.0;1.1296;108.0;1.0093;112.0;1.0467;107.0;0.9907;108.0;0.973;111.0;0.9911;154.0;-0.291;0.4855;76.0;78.0;-0.234;-0.5349;2.0032;-1.2394;0.1213;0.315;0.455;0.5;0.545;0.83;0.0
160.0;0.9756;164.0;0.9704;169.0;1.0;169.0;1.0497;165.0;1.0248;161.0;1.019;158.0;1.026;154.0;0.9686;229.0;-0.3918;0.1606;114.0;115.0;-0.3236;-0.6147;0.8133;-0.4951;-0.3087;0.375;0.475;0.5;0.525;0.825;0.0
159.0;1.6061;99.0;0.9429;105.0;0.3398;309.0;1.8393;163.0;0.9879;165.0;1.0927;151.0;1.0863;139.0;0.9586;221.0;-0.2068;0.3556;107.0;114.0;-0.1185;-0.2183;1.6843;-0.4342;0.2955;0.33;0.43;0.49;0.615;0.52;0.0
141.0;0.9216;153.0;1.0066;152.0;1.0133;150.0;1.0417;145.0;0.9667;150.0;0.9934;151.0;1.0786;140.0;1.037;203.0;-0.1907;0.237;102.0;101.0;-0.0108;-0.2576;1.214;-0.4273;-0.0989;0.35;0.47;0.505;0.575;0.775;0.0
168.0;1.0701;157.0;0.9752;161.0;1.0062;160.0;1.0063;166.0;1.071;155.0;1.0265;151.0;0.9679;156.0;0.963;234.0;-0.2239;0.1682;118.0;116.0;-0.0961;-0.3916;1.1817;-0.2934;-0.1903;0.345;0.485;0.505;0.525;0.84;0.0
158.0;0.9937;159.0;0.9408;169.0;1.0;169.0;1.006;175.0;1.0294;170.0;1.0303;165.0;0.9483;174.0;1.0482;234.0;-0.0864;0.2628;112.0;122.0;-0.132;-0.4018;1.7736;-0.3339;-0.0084;0.33;0.455;0.485;0.505;0.665;0.0
166.0;1.0311;161.0;1.0592;152.0;0.9682;157.0;1.4273;159.0;1.0127;157.0;0.9752;161.0;0.8994;179.0;1.0287;267.0;-0.1837;0.3763;156.0;111.0;-0.2035;-0.2108;2.244;-0.4264;0.2613;0.44;0.545;0.585;0.67;0.61;0.0
162.0;1.0318;157.0;0.9874;159.0;0.9938;160.0;0.9412;160.0;0.9756;164.0;0.9704;169.0;1.0;169.0;1.0497;224.0;-0.4197;0.1898;112.0;112.0;-0.2898;-0.6326;0.8583;-0.5529;-0.4199;0.34;0.47;0.5;0.525;0.86;0.0
195.0;1.0894;179.0;1.0113;177.0;0.9568;185.0;0.9946;179.0;0.989;181.0;1.0;181.0;0.9526;190.0;1.0857;246.0;-0.3016;0.2398;121.0;125.0;-0.3391;-0.5491;1.4022;-0.5872;-0.2813;0.39;0.47;0.49;0.515;0.665;0.0
113.0;1.0367;109.0;0.982;111.0;1.0;111.0;0.9823;84.0;0.6412;131.0;1.1802;111.0;1.0374;107.0;0.9304;135.0;-0.1692;0.4988;77.0;58.0;-0.0397;-0.428;2.0534;-0.9735;0.3442;0.39;0.515;0.58;0.63;0.91;0.0
161.0;1.019;158.0;1.0;158.0;0.9875;160.0;0.9756;157.0;0.9874;159.0;0.9464;168.0;0.9882;170.0;1.0303;215.0;-0.3483;0.1764;106.0;109.0;-0.2911;-0.5348;0.9759;-0.4661;-0.3242;0.315;0.47;0.5;0.525;0.84;0.0
110.0;1.0;110.0;1.0;110.0;0.9735;113.0;1.0561;111.0;1.0374;107.0;0.964;111.0;1.0183;109.0;0.9909;151.0;-0.2108;0.456;74.0;77.0;-0.1956;-0.4571;2.0033;-1.0059;0.1517;0.305;0.45;0.495;0.54;0.835;0.0
155.0;1.0333;150.0;0.9259;162.0;1.7419;93.0;0.4009;152.0;0.8941;170.0;1.0059;169.0;1.0432;162.0;0.9643;206.0;-0.1616;0.3981;100.0;106.0;-0.0625;-0.1987;2.1096;-0.432;-0.1728;0.335;0.44;0.485;0.6;0.815;0.0
137.0;0.9856;139.0;0.972;143.0;0.9662;148.0;1.0068;142.0;0.966;147.0;1.0068;146.0;1.0;146.0;1.0139;197.0;-0.3016;0.2375;98.0;99.0;-0.1455;-0.3628;1.1288;-0.5675;-0.2816;0.35;0.465;0.5;0.58;0.82;0.0
109.0;0.9909;110.0;1.0092;109.0;0.9909;110.0;0.9735;110.0;0.9821;112.0;1.009;111.0;0.9569;116.0;1.045;153.0;-0.1542;0.4953;76.0;77.0;-0.2054;-0.4538;2.2138;-0.7968;0.3251;0.28;0.455;0.495;0.545;0.85;0.0
207.0;1.3185;157.0;0.9075;173.0;0.9943;174.0;1.0943;182.0;1.04;175.0;1.1076;158.0;1.0327;153.0;0.9745;248.0;-0.2002;0.3492;121.0;127.0;-0.1524;-0.1778;1.85;-0.3606;0.1981;0.345;0.46;0.49;0.585;0.53;0.0
150.0;1.0345;145.0;0.9864;147.0;1.0138;145.0;1.0211;149.0;1.0493;142.0;1.0216;139.0;0.9929;140.0;1.0;211.0;-0.183;0.2518;107.0;104.0;-0.0542;-0.2571;1.272;-0.4136;-0.1452;0.345;0.475;0.51;0.575;0.81;0.0
164.0;0.9762;168.0;1.0182;165.0;1.0185;162.0;0.9701;168.0;1.0633;158.0;1.0;158.0;0.9693;163.0;1.0316;235.0;-0.2967;0.1586;118.0;117.0;-0.1906;-0.4931;0.999;-0.3996;-0.2573;0.38;0.485;0.505;0.525;0.845;0.0
153.0;;154.0;0.9625;160.0;0.9524;168.0;1.0;165.0;1.0061;164.0;0.9704;169.0;1.0696;158.0;1.0064;224.0;-0.1978;0.1627;109.0;115.0;-0.0729;-0.4019;1.131;-0.2965;-0.1739;0.365;0.465;0.49;0.51;0.795;0.0
174.0;1.871;93.0;0.3357;277.0;2.4955;111.0;0.5311;163.0;1.0654;153.0;1.987;77.0;0.3615;213.0;1.4013;229.0;-0.2664;0.4275;115.0;114.0;-0.0786;-0.2049;2.0713;-0.4834;-0.0256;0.34;0.45;0.505;0.605;0.54;0.0
189.0;0.9844;192.0;1.0847;177.0;1.0351;171.0;0.9448;163.0;0.9477;172.0;0.9773;176.0;0.9944;177.0;0.9779;235.0;-0.2954;0.2197;121.0;114.0;-0.3308;-0.5564;1.2758;-0.5357;-0.1003;0.355;0.49;0.515;0.54;0.72;0.0
125.0;0.9766;128.0;0.9624;133.0;0.9779;136.0;1.0074;127.0;0.9769;130.0;1.0078;129.0;0.9416;137.0;0.9856;177.0;-0.1195;0.287;89.0;88.0;-0.032;-0.3252;1.2893;-0.6599;0.3024;0.34;0.445;0.51;0.56;0.75;0.0
155.0;0.9936;156.0;0.9571;163.0;0.9645;169.0;1.0242;168.0;0.9941;169.0;0.9883;171.0;1.0621;161.0;1.0126;228.0;-0.2805;0.1951;111.0;117.0;-0.1697;-0.4599;1.1616;-0.4042;-0.2546;0.37;0.465;0.49;0.51;0.82;0.0
161.0;1.0255;157.0;1.0329;152.0;0.9935;153.0;0.9935;156.0;0.9811;159.0;1.0127;157.0;0.9515;165.0;1.0061;218.0;-0.2472;0.1432;109.0;109.0;-0.1236;-0.4125;0.9456;-0.3734;-0.2097;0.335;0.48;0.5;0.52;0.81;0.0
163.0;0.9879;165.0;1.0377;159.0;1.0192;156.0;0.9689;164.0;0.9939;165.0;1.375;120.0;0.5854;205.0;1.1782;229.0;-0.3253;0.1711;115.0;114.0;-0.2111;-0.5357;1.0861;-0.3661;-0.2751;0.385;0.48;0.505;0.525;0.83;0.0
111.0;0.9911;112.0;0.9825;114.0;1.0364;110.0;0.9735;114.0;0.9913;115.0;1.055;109.0;0.9732;112.0;1.0182;156.0;-0.5652;0.4689;77.0;79.0;-0.5361;-0.9095;1.7026;-1.3935;0.0043;0.325;0.445;0.5;0.54;0.835;0.0
205.0;1.213;169.0;1.0629;159.0;1.0392;153.0;0.9684;155.0;1.0065;154.0;0.9686;159.0;0.9876;161.0;0.9527;223.0;-0.3537;0.1803;115.0;108.0;-0.243;-0.5937;0.9974;-0.3993;-0.3744;0.39;0.485;0.52;0.545;0.87;0.0
143.0;0.9408;152.0;1.0483;145.0;0.9732;149.0;0.9868;149.0;0.9551;156.0;0.2557;610.0;2.4597;248.0;1.7589;206.0;0.0576;0.1298;102.0;104.0;0.0768;0.0213;0.6396;-0.2585;0.2219;0.43;0.455;0.5;0.525;0.775;1.0
151.0;1.0134;149.0;1.0205;146.0;0.9733;150.0;0.974;147.0;1.0;147.0;0.9608;153.0;1.0552;145.0;0.9932;200.0;0.0395;0.1627;98.0;102.0;0.035;-0.015;0.8189;-0.3207;0.2514;0.335;0.455;0.495;0.52;0.76;1.0
211.0;2.0288;104.0;0.5977;174.0;1.1013;158.0;0.9576;192.0;1.3813;139.0;1.5109;92.0;0.368;250.0;2.4752;224.0;0.142;0.1932;90.0;134.0;0.2494;0.0717;1.3614;-0.1052;0.2634;0.28;0.37;0.405;0.435;0.64;1.0
148.0;1.0068;147.0;0.4061;362.0;2.6423;137.0;0.9257;366.0;2.7111;135.0;0.931;145.0;0.393;369.0;2.6739;360.0;-0.1943;0.1298;104.0;256.0;-0.2262;-0.2602;0.5459;-0.5546;-0.0395;0.17;0.255;0.29;0.305;0.425;1.0
88.0;1.0353;85.0;1.0759;79.0;0.687;115.0;0.545;251.0;2.6146;96.0;0.3067;313.0;3.3656;93.0;1.0449;246.0;-0.2067;0.294;71.0;175.0;-0.2662;-0.199;1.6881;-0.4038;-0.2544;0.17;0.245;0.29;0.365;0.46;1.0
128.0;0.6809;188.0;1.2703;148.0;1.7209;86.0;0.3839;214.0;2.2062;97.0;0.4899;198.0;1.1186;177.0;1.0727;207.0;-0.3071;0.1859;58.0;149.0;-0.4426;-0.4591;0.6017;-0.4283;-0.4225;0.245;0.255;0.28;0.335;0.45;1.0
346.0;2.6212;132.0;0.3976;332.0;2.4412;136.0;0.4109;353.0;2.5766;137.0;0.9384;146.0;0.4124;354.0;2.7023;347.0;-0.2274;0.11;100.0;247.0;-0.226;-0.2577;0.4478;-0.5885;-0.1119;0.18;0.265;0.29;0.305;0.425;1.0
145.0;1.0432;139.0;0.9586;145.0;1.0;145.0;1.0432;142.0;0.3838;370.0;2.7407;135.0;0.9;150.0;1.0274;194.0;-0.198;0.1273;95.0;99.0;-0.1633;-0.2451;0.3029;-0.5193;-0.0054;0.28;0.465;0.495;0.52;0.79;1.0
135.0;0.3846;351.0;2.5252;139.0;0.9267;150.0;0.4144;370.0;2.7007;137.0;0.9195;149.0;1.0347;144.0;0.9796;359.0;-0.2974;0.0979;100.0;259.0;-0.3107;-0.3195;0.2108;-0.6858;-0.1001;0.25;0.26;0.28;0.295;0.43;1.0
152.0;0.4011;379.0;2.7868;136.0;0.9007;151.0;0.4027;148.0;0.3968;373.0;2.763;135.0;0.9184;147.0;0.375;198.0;-0.2468;0.1608;95.0;103.0;-0.2371;-0.3009;0.5693;-0.6218;0.0056;0.325;0.43;0.485;0.515;0.78;1.0
148.0;0.3558;416.0;0.5181;803.0;3.332;241.0;1.7721;149.0;0.9868;151.0;1.0067;150.0;0.9868;152.0;0.9935;210.0;-0.2505;0.1554;106.0;104.0;-0.2601;-0.2745;0.4487;-0.6748;-0.0766;0.365;0.475;0.51;0.535;0.795;1.0
136.0;0.4109;331.0;2.4519;135.0;0.9375;144.0;0.3978;354.0;2.7023;131.0;0.3958;331.0;2.4161;137.0;0.9648;349.0;-0.2622;0.117;102.0;247.0;-0.2658;-0.287;0.387;-0.5767;-0.1201;0.215;0.265;0.295;0.31;0.44;1.0
147.0;1.0;147.0;1.0352;142.0;0.3498;406.0;0.7463;144.0;0.3721;387.0;2.8248;137.0;0.9448;145.0;1.014;198.0;-0.0973;0.1476;98.0;100.0;-0.1309;-0.1477;0.5947;-0.5036;0.1521;0.295;0.45;0.5;0.525;0.8;1.0
144.0;1.0;144.0;0.9664;149.0;0.9933;150.0;1.0345;147.0;0.9932;148.0;0.345;429.0;3.1314;137.0;0.9195;200.0;-0.1847;0.1634;98.0;102.0;-0.1891;-0.24;0.6479;-0.6107;0.0444;0.325;0.445;0.495;0.52;0.755;1.0
392.0;2.8406;138.0;0.9718;142.0;0.9726;146.0;0.9605;147.0;1.0138;145.0;0.9864;147.0;0.4061;362.0;2.6618;199.0;-0.1189;0.1678;97.0;102.0;-0.1479;-0.1734;0.7086;-0.4846;0.0996;0.335;0.455;0.49;0.52;0.74;1.0
142.0;0.3978;357.0;2.6444;135.0;0.9122;148.0;1.0278;141.0;0.9792;144.0;0.3978;362.0;0.9354;387.0;2.8456;197.0;-0.0361;0.0931;99.0;98.0;-0.041;-0.0804;0.1937;-0.2938;0.1106;0.465;0.445;0.505;0.54;0.825;1.0
197.0;1.1257;175.0;1.306;134.0;0.6634;202.0;1.1038;205.0;1.2202;168.0;0.9655;174.0;1.0235;170.0;0.9827;248.0;-0.6509;0.3701;105.0;143.0;-0.358;-0.7046;1.7332;-0.72;-0.6672;0.24;0.395;0.425;0.45;0.75;1.0
108.0;0.9818;110.0;1.0;110.0;0.9735;113.0;1.2556;135.0;1.1842;114.0;0.9913;115.0;1.0268;112.0;1.0182;149.0;-0.1362;0.4888;55.0;94.0;0.3306;-0.3718;2.3516;-0.7124;-0.0838;0.195;0.325;0.37;0.415;0.63;1.0
174.0;1.1226;155.0;0.896;173.0;1.0485;165.0;1.1224;215.0;1.6288;132.0;0.6377;207.0;1.38;150.0;0.7895;211.0;-0.2304;0.1663;61.0;150.0;-0.196;-0.2452;0.8782;-0.2091;-0.2016;0.235;0.27;0.29;0.355;0.375;1.0
159.0;1.252;127.0;1.016;125.0;1.2755;98.0;0.6622;140.0;1.3208;106.0;0.6928;153.0;1.4167;108.0;0.6667;181.0;-0.0287;0.1822;83.0;98.0;-0.0001;-0.0995;0.9457;-0.3802;0.0332;0.255;0.415;0.46;0.495;0.775;1.0
147.0;0.3789;388.0;2.7714;140.0;0.4011;349.0;2.5852;153.0;0.3974;385.0;2.8519;135.0;0.9247;146.0;0.9799;205.0;-0.0644;0.1316;98.0;107.0;-0.0619;-0.0905;0.4901;-0.3627;0.1604;0.4;0.455;0.485;0.51;0.785;1.0
137.0;0.9448;145.0;1.014;143.0;0.2871;498.0;1.8376;146.0;0.9865;148.0;1.0278;144.0;0.9536;151.0;0.2393;207.0;-0.1659;0.1578;105.0;102.0;-0.198;-0.2096;0.5515;-0.5573;0.0592;0.45;0.48;0.515;0.54;0.765;1.0
148.0;0.2662;556.0;1.9928;279.0;2.0515;136.0;0.406;144.0;1.0;144.0;0.96;150.0;0.4043;371.0;2.7481;198.0;-0.1376;0.13;98.0;100.0;-0.1453;-0.148;0.456;-0.3823;0.0689;0.45;0.465;0.505;0.53;0.81;1.0
372.0;2.6014;143.0;0.9662;148.0;1.0278;144.0;0.9863;148.0;1.0207;145.0;0.9932;146.0;1.0139;144.0;0.9931;197.0;0.1481;0.1305;94.0;103.0;0.1614;0.1022;0.7266;-0.1623;0.3602;0.26;0.44;0.48;0.505;0.785;1.0
151.0;0.9934;152.0;1.0066;151.0;1.0134;149.0;0.3417;149.0;1.0205;146.0;0.9799;149.0;1.0;149.0;1.0;205.0;0.0326;0.1517;101.0;104.0;0.0278;-0.0155;0.8014;-0.3262;0.1962;0.285;0.46;0.495;0.525;0.76;1.0
151.0;0.3094;488.0;1.6106;303.0;2.1042;144.0;0.9536;147.0;0.9932;148.0;0.9737;152.0;0.987;154.0;0.2384;207.0;-0.0887;0.1587;105.0;102.0;-0.13;-0.1685;0.6526;-0.521;0.1819;0.31;0.47;0.51;0.535;0.79;1.0
153.0;1.0408;147.0;0.9866;149.0;0.231;645.0;2.5595;148.0;0.9867;150.0;1.0067;149.0;1.0;149.0;0.2376;206.0;-0.0048;0.1661;103.0;103.0;-0.0492;-0.092;0.8302;-0.432;0.2425;0.46;0.45;0.505;0.53;0.775;1.0
136.0;1.124;121.0;1.0342;117.0;1.2062;97.0;0.9065;123.0;1.0424;118.0;0.9291;127.0;0.9922;128.0;1.1532;167.0;0.1332;0.2661;81.0;86.0;0.1583;0.0764;1.7863;0.1232;0.1483;0.265;0.445;0.49;0.525;0.53;1.0
147.0;0.4164;353.0;2.4514;144.0;0.9351;154.0;1.0336;363.0;2.5563;142.0;0.9221;154.0;1.0548;146.0;1.0;358.0;-0.211;0.1136;104.0;254.0;-0.1944;-0.2159;0.4031;-0.5246;-0.0655;0.21;0.275;0.295;0.31;0.43;1.0
150.0;1.0204;147.0;0.2732;538.0;1.8616;289.0;2.0942;377.0;2.7122;139.0;0.9329;149.0;0.388;384.0;2.8444;365.0;-0.1544;0.1157;102.0;263.0;-0.1455;-0.1255;0.5379;-0.5518;0.1374;0.2;0.265;0.28;0.295;0.435;1.0
381.0;2.8647;133.0;0.8867;150.0;1.0274;146.0;0.3822;145.0;0.3699;392.0;2.9254;134.0;0.9306;144.0;0.3673;203.0;-0.1229;0.1272;102.0;101.0;-0.1281;-0.1764;0.2623;-0.4711;0.0686;0.365;0.445;0.51;0.535;0.775;1.0
142.0;0.3838;370.0;2.7407;135.0;0.9;150.0;1.0274;148.0;1.0;148.0;1.0278;144.0;0.2595;555.0;2.4342;205.0;-0.2338;0.1481;102.0;103.0;-0.2151;-0.3052;0.3898;-0.6143;-0.0145;0.35;0.44;0.5;0.525;0.79;1.0
145.0;1.0284;141.0;0.9724;145.0;1.014;143.0;0.3803;143.0;0.9931;144.0;0.9863;146.0;1.0;146.0;0.9799;200.0;-0.0393;0.1493;100.0;100.0;0.0739;-0.0746;0.6268;-0.4757;0.1545;0.445;0.48;0.505;0.53;0.8;1.0
279.0;2.0515;136.0;0.406;335.0;2.5573;131.0;0.8973;150.0;0.4043;371.0;2.7481;135.0;0.3846;351.0;2.5252;205.0;-0.2002;0.1356;100.0;105.0;-0.1863;-0.2309;0.2439;-0.5609;-0.0224;0.31;0.445;0.495;0.52;0.76;1.0
151.0;1.0134;149.0;0.2431;613.0;2.5542;240.0;1.7518;548.0;1.7287;317.0;2.3481;135.0;0.9247;146.0;1.0282;484.0;-0.156;0.0978;101.0;383.0;-0.1626;-0.1823;0.5183;-0.5053;0.0914;0.125;0.19;0.21;0.22;0.32;1.0
143.0;0.3714;385.0;2.8309;136.0;0.9444;144.0;0.9863;141.0;0.9724;145.0;0.2715;534.0;2.225;240.0;1.7647;199.0;-0.117;0.1238;101.0;98.0;-0.1088;-0.1734;0.3861;-0.4747;0.0345;0.47;0.455;0.51;0.535;0.765;1.0
98.0;0.9074;108.0;1.1368;95.0;0.3711;256.0;1.3763;162.0;1.8409;88.0;0.4231;208.0;0.9952;209.0;2.1327;186.0;-0.2569;0.1006;73.0;113.0;-0.2479;-0.271;0.1905;-0.2695;-0.1897;0.355;0.37;0.395;0.455;0.42;1.0
145.0;1.0069;144.0;1.007;143.0;0.9662;148.0;1.0;148.0;0.9867;150.0;1.0417;144.0;1.007;143.0;1.007;196.0;-0.0625;0.159;93.0;103.0;-0.0726;-0.0934;0.6993;-0.3934;0.1563;0.33;0.45;0.48;0.505;0.8;1.0
135.0;0.9122;148.0;1.0207;145.0;0.9932;146.0;1.0139;145.0;0.9864;147.0;0.3542;415.0;3.1203;133.0;0.8986;203.0;0.0533;0.1612;102.0;101.0;0.0718;0.0853;0.8006;-0.3893;0.159;0.47;0.485;0.51;0.535;0.745;1.0
154.0;1.0199;151.0;1.0134;149.0;0.2431;613.0;2.5542;145.0;0.2646;548.0;1.7287;317.0;2.3481;135.0;0.9247;207.0;-0.1517;0.145;106.0;101.0;-0.177;-0.2074;0.5131;-0.5114;0.1141;0.47;0.46;0.515;0.54;0.79;1.0
147.0;1.0068;146.0;0.9932;147.0;1.0068;146.0;0.3873;149.0;1.0276;145.0;0.9864;147.0;0.3984;369.0;2.5986;209.0;-0.1227;0.148;105.0;104.0;-0.1424;-0.1551;0.5921;-0.5326;0.0828;0.3;0.47;0.505;0.53;0.77;1.0
150.0;0.9934;151.0;0.3984;379.0;2.669;142.0;0.9281;150.0;1.0;150.0;0.9677;155.0;0.3726;416.0;2.869;210.0;-0.1113;0.1462;105.0;105.0;-0.1022;-0.1136;0.5019;-0.4821;0.1502;0.46;0.475;0.51;0.535;0.77;1.0
402.0;0.7992;503.0;1.0414;483.0;1.0299;469.0;1.0064;144.0;1.036;139.0;0.9521;146.0;0.9932;147.0;1.05;198.0;-0.1539;0.1543;98.0;100.0;-0.1657;-0.2034;0.6042;-0.5047;-0.0571;0.38;0.465;0.5;0.53;0.845;1.0
534.0;2.225;240.0;1.7647;136.0;0.9379;145.0;0.3951;142.0;0.3586;396.0;0.9519;416.0;1.0558;394.0;2.9624;199.0;-0.1114;0.1446;100.0;99.0;-0.1085;-0.1768;0.5479;-0.4563;0.0562;0.365;0.45;0.51;0.54;0.785;1.0
196.0;1.9406;101.0;0.3713;272.0;2.4727;110.0;1.3415;275.0;2.4775;111.0;1.3214;84.0;0.9333;90.0;0.9278;261.0;-0.2463;0.2072;69.0;192.0;-0.2021;-0.2141;1.2626;-0.2536;-0.1415;0.145;0.23;0.265;0.29;0.435;1.0
149.0;0.4105;363.0;2.5563;142.0;0.9221;154.0;1.0548;151.0;1.0203;148.0;0.9867;150.0;0.9804;153.0;0.4058;209.0;-0.2181;0.1444;104.0;105.0;-0.2543;-0.2648;0.358;-0.5842;0.0177;0.36;0.465;0.505;0.53;0.765;1.0
135.0;0.9184;147.0;0.391;376.0;2.6857;140.0;0.3784;149.0;1.0136;147.0;1.0;147.0;1.0352;142.0;0.3498;207.0;-0.238;0.1266;103.0;104.0;-0.1986;-0.2677;0.2916;-0.5398;-0.1256;0.47;0.455;0.5;0.525;0.77;1.0
148.0;0.3915;378.0;1.331;284.0;2.1037;135.0;0.9122;146.0;0.9799;149.0;1.0068;148.0;0.2662;556.0;1.9928;205.0;-0.3221;0.1399;103.0;102.0;-0.3383;-0.3795;0.2547;-0.6654;-0.1114;0.305;0.46;0.505;0.53;0.785;1.0
151.0;1.0486;144.0;0.9664;149.0;1.0205;146.0;0.1642;142.0;0.9726;146.0;1.021;143.0;0.9862;145.0;0.3662;199.0;-0.1258;0.1568;100.0;99.0;-0.1523;-0.1852;0.7053;-0.5156;0.1147;0.46;0.445;0.505;0.53;0.785;1.0
148.0;0.4181;354.0;2.6617;133.0;0.8808;151.0;1.0134;150.0;1.0;150.0;1.0204;147.0;0.9608;153.0;0.425;212.0;-0.1079;0.1504;107.0;105.0;-0.0569;-0.1972;0.7151;-0.463;0.0565;0.385;0.48;0.51;0.535;0.79;1.0
133.0;0.9301;143.0;0.3714;385.0;2.8309;136.0;0.9444;145.0;1.0284;141.0;0.9724;145.0;0.2715;534.0;2.225;202.0;-0.1046;0.1246;101.0;101.0;-0.091;-0.1099;0.3765;-0.4457;0.0489;0.385;0.49;0.51;0.53;0.79;1.0
358.0;1.3066;274.0;1.9855;138.0;0.9079;152.0;1.0704;148.0;1.0068;147.0;1.0;147.0;1.0;147.0;0.9866;207.0;-0.286;0.1514;104.0;103.0;-0.2572;-0.3172;0.473;-0.6616;-0.0825;0.42;0.47;0.505;0.53;0.79;1.0
150.0;0.3713;404.0;2.9065;139.0;0.9205;151.0;1.0134;315.0;2.2993;137.0;0.9013;152.0;1.0133;150.0;0.9868;323.0;-0.1585;0.13;103.0;220.0;-0.1456;-0.1759;0.4855;-0.4999;0.0186;0.19;0.29;0.325;0.34;0.48;1.0
148.0;1.0278;144.0;0.9931;145.0;0.9797;148.0;0.9801;390.0;2.8467;137.0;0.9133;150.0;0.3927;382.0;2.7681;377.0;-0.1654;0.1104;104.0;273.0;-0.2018;-0.2063;0.4827;-0.504;-0.0775;0.245;0.255;0.28;0.295;0.4;1.0
144.0;0.9931;145.0;0.4899;296.0;2.1143;140.0;0.9272;148.0;1.0068;147.0;1.0068;146.0;0.416;351.0;2.5252;196.0;0.0312;0.1529;93.0;103.0;0.0352;-0.0314;0.7485;-0.373;0.2804;0.355;0.435;0.48;0.505;0.78;1.0
147.0;0.9735;151.0;1.0203;148.0;0.9933;149.0;0.9739;373.0;2.6835;139.0;0.9205;151.0;0.3719;406.0;2.9635;363.0;-0.2331;0.1303;102.0;261.0;-0.2199;-0.1971;0.6131;-0.653;-0.0154;0.17;0.27;0.285;0.3;0.42;1.0
149.0;1.0205;146.0;0.9799;149.0;1.0347;144.0;0.96;147.0;0.3;490.0;1.8284;268.0;1.9143;140.0;0.9211;207.0;-0.2155;0.152;105.0;102.0;-0.198;-0.2718;0.5099;-0.6053;0.054;0.48;0.465;0.51;0.535;0.79;1.0
317.0;2.3481;135.0;0.9247;146.0;1.0282;142.0;0.966;409.0;0.7464;548.0;2.0296;270.0;1.9424;139.0;0.9521;392.0;-0.0925;0.1129;106.0;286.0;-0.0868;-0.1583;0.6541;-0.4698;0.0184;0.195;0.235;0.27;0.285;0.39;1.0
143.0;0.3803;376.0;2.7647;136.0;0.9067;150.0;1.0135;146.0;0.9799;149.0;0.3104;480.0;1.7391;276.0;2.0;204.0;-0.0057;0.1419;102.0;102.0;-0.0309;-0.0404;0.5186;-0.4246;0.2125;0.44;0.475;0.505;0.53;0.8;1.0
140.0;0.9333;150.0;1.1905;126.0;0.8129;155.0;1.0265;193.0;1.9694;98.0;0.4356;225.0;1.8595;121.0;0.5171;214.0;-0.1368;0.1741;79.0;135.0;0.0403;-0.1994;0.8466;-0.2999;-0.1756;0.195;0.34;0.37;0.4;0.645;1.0
168.0;1.8261;92.0;0.424;217.0;2.2371;97.0;0.533;200.0;2.1053;95.0;0.4612;206.0;1.4714;140.0;0.6731;205.0;-0.1499;0.1128;65.0;140.0;-0.1888;-0.2784;0.6304;-0.152;-0.0408;0.25;0.3;0.32;0.375;0.345;1.0
144.0;0.929;155.0;1.1481;135.0;0.9247;146.0;0.9932;146.0;0.9605;152.0;1.0066;151.0;1.0272;147.0;1.0138;201.0;-0.0939;0.1027;99.0;102.0;-0.0774;-0.1135;0.2619;-0.3436;0.0339;0.43;0.46;0.5;0.525;0.765;1.0
146.0;0.9669;151.0;0.9805;154.0;1.0267;150.0;1.0;356.0;2.4895;143.0;0.9597;149.0;1.0347;144.0;0.3945;351.0;-0.1243;0.0947;102.0;249.0;-0.0909;-0.1522;0.302;-0.3833;0.1019;0.22;0.27;0.295;0.31;0.445;1.0
152.0;1.0066;151.0;1.0203;148.0;1.0068;147.0;0.9866;152.0;1.034;147.0;0.98;150.0;0.9677;155.0;1.0473;211.0;0.0287;0.158;105.0;106.0;-0.0112;-0.0208;0.7598;-0.3245;0.2284;0.46;0.47;0.505;0.53;0.76;1.0
144.0;0.9664;149.0;0.9933;150.0;1.0417;144.0;0.3396;146.0;0.9865;148.0;1.0278;144.0;1.0;144.0;0.9931;201.0;-0.1399;0.1628;99.0;102.0;-0.1939;-0.2029;0.6547;-0.5474;0.0962;0.42;0.435;0.495;0.525;0.78;1.0
250.0;1.7857;140.0;0.9655;145.0;0.3699;392.0;2.8201;151.0;1.0134;149.0;0.3417;436.0;0.5317;820.0;3.3065;211.0;-0.1739;0.1801;106.0;105.0;-0.2098;-0.22;0.7414;-0.601;0.1281;0.3;0.47;0.505;0.535;0.795;1.0
141.0;0.9724;145.0;0.9932;146.0;1.0139;144.0;0.4079;144.0;0.3789;380.0;2.7338;139.0;0.9456;147.0;1.0208;193.0;-0.2016;0.1411;93.0;100.0;-0.1559;-0.2306;0.4307;-0.5332;0.0284;0.46;0.45;0.485;0.515;0.8;1.0
150.0;0.9677;155.0;0.3726;416.0;2.869;145.0;0.9477;145.0;0.3826;379.0;2.7664;137.0;0.9257;148.0;1.0278;196.0;-0.1281;0.1531;95.0;101.0;-0.1309;-0.1788;0.6162;-0.5312;0.1043;0.33;0.435;0.49;0.515;0.775;1.0
98.0;0.7597;129.0;0.8897;145.0;1.2946;112.0;0.4444;228.0;2.4783;92.0;0.3665;251.0;2.5876;97.0;0.4025;227.0;-0.275;0.1664;68.0;159.0;-0.3317;-0.4962;0.3766;-0.3352;-0.256;0.265;0.285;0.3;0.32;0.36;1.0
352.0;2.5324;139.0;0.9267;150.0;1.0067;149.0;0.9933;147.0;0.9866;149.0;1.0068;148.0;0.2556;579.0;2.5284;204.0;-0.193;0.152;102.0;102.0;-0.2225;-0.2647;0.5748;-0.6238;0.0227;0.33;0.44;0.505;0.53;0.77;1.0
137.0;0.9384;146.0;0.3873;377.0;2.7518;137.0;0.9514;385.0;2.9167;132.0;0.9041;146.0;0.3659;399.0;1.3759;372.0;-0.2033;0.1198;103.0;269.0;-0.1954;-0.2682;0.435;-0.5492;-0.1428;0.2;0.255;0.28;0.295;0.405;1.0
135.0;0.9122;148.0;1.0278;144.0;0.4;360.0;2.6667;362.0;0.9354;387.0;2.8456;136.0;0.9444;144.0;0.3861;353.0;-0.054;0.0865;100.0;253.0;-0.0488;-0.0583;0.2346;-0.2605;0.0751;0.17;0.26;0.285;0.315;0.43;1.0
146.0;0.3822;382.0;2.8722;133.0;0.8693;153.0;0.3893;144.0;0.3673;392.0;2.8;140.0;0.979;143.0;0.3753;193.0;-0.113;0.1184;93.0;100.0;-0.111;-0.1557;0.328;-0.4403;0.0293;0.345;0.44;0.49;0.51;0.755;1.0
139.0;0.9653;144.0;0.9931;145.0;0.9932;146.0;1.021;151.0;0.4242;356.0;2.5985;137.0;0.8896;154.0;1.0065;205.0;-0.2491;0.1397;100.0;105.0;-0.2559;-0.2737;0.362;-0.5949;-0.0243;0.43;0.445;0.495;0.52;0.78;1.0
145.0;0.9732;149.0;0.9933;150.0;1.0135;148.0;1.0207;379.0;2.6879;141.0;0.9097;155.0;1.0473;148.0;1.0068;372.0;-0.2657;0.1431;107.0;265.0;-0.227;-0.2808;0.6286;-0.6554;-0.0167;0.255;0.265;0.29;0.305;0.42;1.0
224.0;0.9532;235.0;1.0682;220.0;1.0526;209.0;0.9812;112.0;0.6222;180.0;0.9474;190.0;1.5833;120.0;1.4286;130.0;-0.1499;0.1846;52.0;78.0;-0.1187;-0.1292;0.8462;-0.1526;-0.1224;0.35;0.36;0.4;0.5;0.48;1.0
385.0;2.8519;135.0;0.9247;146.0;0.9799;149.0;1.0068;149.0;1.0347;144.0;0.9664;149.0;0.4294;347.0;2.5328;199.0;-0.1731;0.1173;95.0;104.0;-0.1966;-0.2175;0.3183;-0.4881;0.04;0.4;0.425;0.48;0.505;0.76;1.0
89.0;0.4198;212.0;2.1414;99.0;0.4853;204.0;2.125;194.0;1.94;100.0;0.5319;188.0;1.9184;98.0;0.4876;198.0;-0.1867;0.1636;63.0;135.0;-0.093;-0.1604;0.7379;-0.0894;0.0329;0.275;0.295;0.32;0.39;0.34;1.0
147.0;1.0138;145.0;0.9932;146.0;1.021;143.0;0.3896;141.0;0.986;143.0;1.0214;140.0;0.9589;146.0;0.9932;201.0;-0.2633;0.1607;103.0;98.0;-0.2859;-0.3189;0.4396;-0.6845;-0.0472;0.475;0.465;0.515;0.54;0.805;1.0
149.0;1.0276;145.0;0.9864;147.0;0.3984;369.0;2.5986;326.0;2.3971;136.0;0.9189;148.0;1.0;148.0;0.2761;331.0;-0.1771;0.1354;103.0;228.0;-0.1788;-0.1841;0.6033;-0.568;-0.0744;0.18;0.29;0.315;0.33;0.455;1.0
696.0;2.5495;273.0;2.0222;135.0;0.9184;147.0;1.0068;151.0;1.0342;146.0;0.9799;149.0;0.2744;543.0;1.3474;206.0;-0.132;0.1531;101.0;105.0;-0.1596;-0.1879;0.5184;-0.5777;0.1351;0.36;0.45;0.495;0.52;0.775;1.0
149.0;0.9933;150.0;1.0417;144.0;0.3396;424.0;1.4722;148.0;1.0278;144.0;1.0;144.0;0.9931;145.0;0.9732;205.0;-0.1288;0.1543;102.0;103.0;-0.1403;-0.2053;0.5889;-0.5184;0.1173;0.47;0.45;0.505;0.53;0.78;1.0
191.0;2.0538;93.0;0.465;200.0;2.1053;95.0;0.4612;216.0;1.3252;163.0;1.9176;85.0;0.3899;218.0;1.2824;219.0;-0.2013;0.1;68.0;151.0;-0.2334;-0.3587;0.5528;-0.177;-0.177;0.27;0.29;0.31;0.37;0.37;1.0
142.0;1.0143;140.0;0.359;390.0;1.3879;281.0;2.0511;144.0;0.9664;149.0;1.0347;144.0;0.9664;149.0;0.9933;200.0;-0.202;0.142;100.0;100.0;-0.2154;-0.2488;0.4767;-0.6456;-0.0378;0.425;0.455;0.505;0.525;0.765;1.0
621.0;1.9467;319.0;2.295;139.0;0.9392;148.0;0.9801;148.0;0.9673;153.0;0.4298;356.0;2.5429;140.0;0.9333;206.0;-0.1575;0.1688;103.0;103.0;-0.2125;-0.2197;0.6087;-0.6343;0.0791;0.28;0.46;0.505;0.525;0.765;1.0
149.0;1.0068;148.0;0.2662;556.0;1.9928;279.0;2.0515;141.0;0.9792;144.0;1.0;144.0;0.96;150.0;0.4043;198.0;-0.1364;0.1155;100.0;98.0;-0.1468;-0.1678;0.2528;-0.4542;0.0333;0.315;0.48;0.51;0.535;0.79;1.0
143.0;0.9795;146.0;0.1655;882.0;3.6296;243.0;1.6531;152.0;1.0201;149.0;1.0;149.0;0.3386;440.0;0.7899;206.0;-0.2563;0.1547;100.0;106.0;-0.2832;-0.2971;0.4108;-0.7116;-0.0746;0.295;0.455;0.49;0.515;0.76;1.0
143.0;1.007;142.0;0.9793;145.0;0.9732;149.0;0.9933;149.0;0.9739;153.0;0.4037;379.0;2.6879;141.0;0.9097;207.0;-0.1989;0.1648;103.0;104.0;-0.2228;-0.2454;0.5617;-0.619;-0.1054;0.35;0.47;0.5;0.53;0.735;1.0
145.0;0.9864;147.0;0.9735;151.0;1.0203;148.0;0.9933;147.0;0.3941;373.0;2.6835;139.0;0.9205;151.0;0.3719;205.0;-0.1971;0.1645;103.0;102.0;-0.2302;-0.2595;0.5933;-0.6172;0.0499;0.295;0.45;0.505;0.53;0.775;1.0
149.0;0.9933;150.0;1.0345;145.0;0.3816;380.0;2.695;429.0;3.1314;137.0;0.9195;149.0;0.4116;362.0;2.7424;403.0;-0.2364;0.1172;103.0;300.0;-0.219;-0.2119;0.4339;-0.6492;-0.0882;0.155;0.245;0.255;0.27;0.38;1.0
440.0;0.7899;557.0;2.2735;245.0;1.7754;138.0;0.9262;148.0;0.3936;376.0;2.7246;138.0;0.9517;145.0;0.9797;207.0;-0.1655;0.1497;104.0;103.0;-0.175;-0.218;0.5367;-0.5486;0.0582;0.31;0.465;0.51;0.535;0.795;1.0
