Q_val;R_val;S_val;RR_l_0/RR_l_1;signal_std;seq_size;label
-0.5993674352738754;1.5024872134807277;-0.6037462807578431;0.9171270718232044;0.2549170796696887;256.0;0.0
-0.4549999999999999;2.0140290778167738;-1.0996561303852883;2.22;0.4959558156705236;154.0;0.0
-0.3619446895663219;1.1476999811395534;-0.5304522885117892;1.0133333333333334;0.2324892080122269;210.0;0.0
-0.4566411742649578;1.6401659140603184;-0.5937353192631271;1.0279329608938548;0.247014520384109;257.0;0.0
-0.4959023874520847;0.9778182546734194;-0.4167828034165162;0.9875;0.1591295157767001;198.0;0.0
-0.3160434624084073;1.7006783825666512;-0.3879528970122456;0.9827586206896552;0.3686909437125391;230.0;0.0
-0.4376029197106884;0.9542407409077682;-0.3566339280638991;1.0316455696202531;0.1424164462548188;230.0;0.0
-0.1480821082465181;2.135874337501299;-0.2938993493404716;2.142857142857143;0.4001253909063935;220.0;0.0
-0.5481563976152553;1.4180296369447352;-0.6763717273325954;0.9781420765027322;0.2452422274871715;245.0;0.0
-0.5553973193327666;0.9904409905344812;-0.4607415834602548;1.0120481927710845;0.1752205422220688;195.0;0.0
-0.6025331844745769;1.908985234074677;-1.1554518928204949;1.0;0.4853439096629823;157.0;0.0
-0.2983564505265214;2.2996698445532626;-0.9903296682572852;1.0412844036697249;0.4883070726238756;156.0;0.0
-0.2910180654236998;1.9471268367488777;-0.48192776782153;0.9631901840490796;0.3776871253252188;227.0;0.0
-0.4225198189655919;1.651397962121228;-0.4920556336156643;1.011904761904762;0.2524870683422374;251.0;0.0
-0.5479840367416846;1.7643211938385797;-0.5244891891351081;0.9497206703910616;0.2660046988575415;245.0;0.0
-0.3745337642331399;1.904394204348082;-0.2592170863127152;1.0479041916167664;0.258634587756351;255.0;0.0
-0.5042901973003165;0.980710722318865;-0.3796049066957906;0.9751552795031057;0.1549346267168199;226.0;0.0
0.2536021861560416;2.402394968016749;0.0693656424430345;1.0141843971631206;0.2665921995514153;214.0;0.0
-0.2103908735645722;1.3971843070744876;-0.3765176252030244;0.9708029197080292;0.2995354971827073;179.0;0.0
-0.2908809500507138;1.2167169151861197;-0.4878391959798994;1.0211267605633805;0.2511454613842541;201.0;0.0
-0.2026895785701378;2.164510920506955;-0.3792786594146895;1.0375;0.4025004297117023;217.0;0.0
-0.2585664016304976;2.053186235669439;-0.497091644269384;0.970414201183432;0.3967691260874775;244.0;0.0
-0.5533472124252042;1.906752856891471;-0.4262973672021351;1.023391812865497;0.2863388613790213;225.0;0.0
-0.5218670677960355;1.704624660222824;-0.4556727395257856;0.9835164835164836;0.2662476798640664;251.0;0.0
-0.3587401364049998;1.0625411110224887;-0.2737035064250414;1.0;0.1505911962564872;219.0;0.0
-0.1141593216044938;2.083071873430644;-0.3450315185175751;0.9315068493150684;0.4065684573584309;203.0;0.0
-0.2966056112788067;1.2164867355407298;-0.4861804346578871;1.4859154929577465;0.2535059585813899;195.0;0.0
-0.2781318408636891;1.318069324415469;-0.5320429206119145;0.962406015037594;0.2890018858350874;187.0;0.0
-0.49019380794545;2.1215175870064216;-1.18024012480412;0.9473684210526316;0.500048163030212;153.0;0.0
-0.5183750021523199;0.8937944516841566;-0.4269033543310275;0.9880239520958084;0.1458653022052432;227.0;0.0
-0.469153485762618;1.9178597323393145;-0.3376814440598992;0.9602272727272728;0.2674221025466252;259.0;0.0
-0.3133577419763239;1.233982218875204;-0.5054171874573428;1.0074074074074073;0.2348114364451902;227.0;0.0
-0.6409783511620086;0.9089366233355616;-0.5546853759757808;1.0126582278481011;0.1652079439687788;219.0;0.0
-0.3613631627537881;2.890000000000001;-0.8038856431733417;0.9734513274336284;0.8262967822684107;219.0;0.0
-0.3801796577979298;1.2095321170258058;-0.5364426465900923;0.9929078014184396;0.2621753966869204;204.0;0.0
-0.6002099140885403;1.4712252378988335;-0.6428341211156811;1.0;0.2416637933417491;234.0;0.0
-0.4902048280945354;1.6416219349983918;-0.6261473961930759;0.9945945945945946;0.2442141375757274;247.0;0.0
0.0325035276044394;1.5699846471193484;-0.2317249537503528;0.9774436090225564;0.2806500435032026;189.0;0.0
-0.5842310867986954;1.4128790158577695;-0.6717024293896916;0.994011976047904;0.2468558143560809;229.0;0.0
-0.4177780421604922;2.8436562002287125;-0.6871311712943071;0.9310344827586208;0.727673540351892;240.0;0.0
-0.4942494582846976;2.1042096020125545;-1.1214400728038514;0.990909090909091;0.4868823958225175;154.0;0.0
-0.3824260166024292;1.14706518356534;-0.5672008100933533;1.014388489208633;0.2335865144517608;192.0;0.0
-0.2527067142692552;1.306672278929713;-0.4443680431143236;1.0068027210884354;0.2793747649808365;212.0;0.0
-0.6711824460380078;1.2293586831789007;-0.4413987163482303;1.0141843971631206;0.2951494397786519;196.0;0.0
-0.5867263502657023;1.2532667875271084;-0.6561352821270153;1.089820359281437;0.2247837634045172;233.0;0.0
-0.1535493215945795;1.8962553380593672;-0.3638939374409032;0.9612903225806452;0.3697837067391533;231.0;0.0
-0.5350134900519584;0.9060895374853316;-0.4228206298118519;0.9807692307692308;0.152134416473336;214.0;0.0
-0.6039580775748555;1.008646543127346;-0.4877647519354293;0.9534883720930232;0.170883430549646;229.0;0.0
-0.4919680276475845;0.9677540032137072;-0.3397208095467244;1.005952380952381;0.1425127707630656;227.0;0.0
-0.4283958658071363;1.8436991017492024;-0.6022861141863988;0.535;0.4114969695499162;201.0;0.0
-0.5002066537003467;1.535670249796304;-0.4972338351963127;1.0365853658536586;0.240525230518062;244.0;0.0
-0.5755745066712157;0.8654323667437771;-0.5224088369291953;1.0070921985815602;0.1531023630595958;203.0;0.0
-0.5454902232977311;1.1385183109394184;-0.4902690060820932;1.0;0.1936378262969577;219.0;0.0
-0.5829716006665762;1.8168164524345176;-0.4036584849832002;0.9766081871345028;0.2727516977440763;250.0;0.0
-0.641210988119087;1.587449815362603;-0.668707278634113;0.9825581395348836;0.2678997872080729;242.0;0.0
-0.3867592530493041;1.6447873443019174;-0.5191298637994018;1.0;0.2473707323166032;238.0;0.0
-0.4789338577937252;2.5697025065947816;-0.7055949445045357;1.0666666666666669;0.6508073897506661;308.0;0.0
-0.371491256485143;1.1553380929142991;-0.5358966296766562;1.0071942446043165;0.2758189153310953;160.0;0.0
-0.441024794030122;1.577458551804188;-0.4623301323060802;0.9651162790697676;0.2533113692639493;250.0;0.0
-0.1040846718868515;1.911450126855656;-0.252579841087266;0.9551282051282052;0.3364939037567973;227.0;0.0
-0.6982309200042396;0.7935278713241956;-0.5182703425201974;1.0061349693251531;0.1590242326267899;227.0;0.0
-0.1125513526519662;1.904024319128173;-0.3257814855130033;1.0;0.366989502717126;225.0;0.0
-0.1325161624672768;2.302726267200381;0.2086338714545495;2.072289156626506;0.4035017525884919;205.0;0.0
-0.3274861797582476;2.154112002745683;-0.971621595655562;1.0789473684210529;0.5255381430123703;162.0;0.0
-0.2713252135658723;1.2273589181204845;-0.5651232136902488;1.0305343511450382;0.2844773421977208;191.0;0.0
-0.5935282910181428;0.9523240887848348;-0.4267818707140776;0.9473684210526316;0.1569263396018049;218.0;0.0
-0.290181255115697;1.938176133331683;-0.4690876351038272;0.5333333333333333;0.3891541684450373;236.0;0.0
-0.4360134718385023;1.767375431298943;-0.3153611437734045;0.9491525423728814;0.2542224792980778;248.0;0.0
-0.4939376608946764;2.091835557138712;-1.2387905330805464;1.009090909090909;0.5237907959889553;154.0;0.0
0.11569018589572;1.784458177357272;0.0957795590184124;1.0390625;0.2369957640953225;189.0;0.0
-0.4399514959337532;1.107439203297789;-0.6642862829428734;1.0073529411764706;0.2861643455362467;176.0;0.0
-0.4825728376452631;1.856086887926157;-0.3539547590208231;1.0;0.2788550635916716;228.0;0.0
-0.4434740196440552;1.1054490255503258;-0.3036319542831465;0.9882352941176472;0.1639115177810584;233.0;0.0
-0.4656718283933035;1.8096324658382776;-0.4631135057671824;1.0426829268292683;0.264025917327135;244.0;0.0
-0.5094705172775945;1.067160591458555;-0.4163641840991149;1.0;0.1758784736404009;213.0;0.0
-0.3303188857879278;1.131296721234066;-0.4856479423795584;1.0503597122302155;0.2173763512601115;201.0;0.0
-0.2782364725223758;2.6207913577542854;-0.9497740213064774;0.9553571428571428;0.6857624199601643;312.0;0.0
-0.3601534483425045;1.1964150662262798;-0.5026071273425804;0.9931972789115646;0.2466353716894164;206.0;0.0
-0.2831657625589628;1.2579481072156862;-0.4695653716708752;1.0;0.2538168077769046;204.0;0.0
-0.3377634895706872;1.5809102206207988;-0.0636421977267772;0.9873417721518988;0.3246125934355306;215.0;0.0
-0.3886163268409067;1.182418312225447;-0.5914004915094512;1.2666666666666666;0.2626208129141237;207.0;0.0
-0.5178445391349751;0.9874518912455572;-0.4403874518942657;1.1355932203389831;0.1582830836342888;234.0;0.0
-0.53640095810301;1.0787518640307578;-0.4238307432969319;0.9176470588235294;0.1703121557405261;230.0;0.0
-0.4045164069230322;1.8787283033648008;-0.4324559199203215;0.96045197740113;0.2731646069899329;249.0;0.0
-0.4781899217392684;1.688037501491019;-0.3764684462948146;0.9252873563218392;0.2505653664085119;248.0;0.0
-0.4590830303867071;1.7146801222965395;-0.3859838519133782;1.0372670807453417;0.2552616269599838;257.0;0.0
-0.4648735223731005;1.7176356287892456;-0.4055661341286231;0.9940476190476192;0.2623692755980547;230.0;0.0
-0.3455237574395082;1.2211772161567298;-0.550660392232718;0.9724137931034482;0.2686395795246513;197.0;0.0
-0.5562315969086624;0.9291781539801244;-0.5195211604707548;0.945121951219512;0.161847307443081;240.0;0.0
-0.5146702479707382;0.922192939701388;-0.4200246266092974;1.0794701986754969;0.1744279987614286;206.0;0.0
-0.4961319927965128;0.9759753330522488;-0.4545267370623635;1.0576923076923077;0.1556014008109126;221.0;0.0
-0.4973388221963502;1.807367057226153;-0.4281644608806615;0.9615384615384616;0.2806404873847453;233.0;0.0
-0.4109964921349622;2.9874675271070408;-0.9911149223607196;1.0321100917431192;0.7370981383322988;311.0;0.0
-0.4793090603587779;1.0977179993047124;-0.3093064272240553;0.9875;0.1642805834756745;226.0;0.0
-0.141418374413923;2.1626517034834207;-0.375751240841847;0.9696969696969696;0.382812007601973;257.0;0.0
-0.5060935251072591;1.202352024194841;-0.349163905796553;0.9467455621301776;0.1759740182661585;234.0;0.0
-0.3634182473215601;2.36339464198998;-0.8759682639927162;1.018348623853211;0.5038326969071267;154.0;0.0
-0.7419564010508641;0.4934421725839315;-0.6157904976192963;1.006578947368421;0.1278537611840532;209.0;0.0
-0.1891651072808141;1.8569775307743768;0.0238488279103666;1.0472972972972974;0.3147848153548441;229.0;0.0
-0.5925105857356668;2.3316956415049908;-0.7689316014253414;0.5944700460829493;0.6174630368045431;227.0;0.0
-0.6538921896932636;0.799570253798444;-0.5989865767258944;0.9523809523809524;0.1676890644826807;206.0;0.0
-0.1457902213950148;2.0368819981279183;-0.3830437732442076;0.9497206703910616;0.4112646497614381;232.0;0.0
-0.1483877475747822;2.267872271600641;-0.6089384924988369;1.1842105263157894;0.4782340381441691;156.0;0.0
-0.5153146098983995;0.8258193481428154;-0.4783818349177644;0.9938650306748468;0.1421501218259823;231.0;0.0
-0.44709587493163;1.7640569085319502;-0.4098618554192387;1.0116279069767442;0.2495967940290765;236.0;0.0
-0.3372248649040337;2.4768778304346046;-1.0926381593660168;1.0091743119266054;0.6966690915212685;309.0;0.0
-0.2707167892353222;2.8407659363466893;-0.5827351794652816;1.036697247706422;0.8578400632348606;312.0;0.0
-0.2957393262573947;1.2940428239269777;-0.4902259680476541;0.958041958041958;0.2714738976681646;202.0;0.0
-0.4907533667492776;0.8704225843263756;-0.4263830827834254;0.9939024390243902;0.1448147490311343;234.0;0.0
-0.5188885067550264;1.7311828065242778;-0.5064699620682229;0.9821428571428572;0.2545349811820038;248.0;0.0
-0.3200789933057753;1.2669777131405215;-0.5042726458682603;0.9859154929577464;0.2618635213754278;198.0;0.0
-0.177383208039125;2.145955067005536;0.1735790918781643;1.2420382165605095;0.3856450869904642;222.0;0.0
-0.2204801603410606;1.2840878366036623;-0.4043574623534951;1.0354609929078014;0.2652947422957378;193.0;0.0
-0.2212331376581101;1.2977072092520283;-0.4530651821182355;0.96;0.2710883684107903;204.0;0.0
-0.3334520288167329;1.1808113637841542;-0.5769844995662782;1.0;0.2929289099049468;190.0;0.0
-0.5070681206885926;1.1036548984816907;-0.4157140920164994;0.9798657718120806;0.1984002225162183;218.0;0.0
-0.5336099621306044;1.0994623138854671;-0.4112699090165732;0.9352941176470588;0.1803789917076304;236.0;0.0
-0.1812293086737099;1.8363875222513737;-0.3256250590635219;1.0136986301369864;0.3682953571693983;178.0;0.0
-0.513820785126215;0.9014762998514372;-0.367420352549101;1.038216560509554;0.1577081315537056;215.0;0.0
-0.3955374990908064;1.8283005164309645;0.0834255023604634;0.9151515151515152;0.3567347623077227;258.0;0.0
-0.3434003675480389;1.2516526335969544;-0.5282241230716568;0.9647887323943662;0.2623680521616781;202.0;0.0
-0.2869682297745354;1.257514881802072;-0.4287013666742522;1.3741496598639455;0.2455647733455683;202.0;0.0
-0.530389587123984;1.7690231847172475;-0.4186628940458593;1.0057471264367817;0.2654309382386322;246.0;0.0
-0.2865621730975867;1.177745014899541;-0.4765162891561599;0.9591836734693876;0.2419734423406242;205.0;0.0
-0.5573132007523967;0.8896084378163831;-0.5167871603629544;0.9793103448275862;0.1664496996169039;206.0;0.0
-0.3474162327970422;1.9240805023775105;-0.2980097373700173;1.0171428571428571;0.2634906113556017;249.0;0.0
-0.3026640163354941;1.2291364945079473;-0.5385970861090927;1.0215827338129495;0.2738816259285165;198.0;0.0
-0.4508131863266408;1.1089039278274628;-0.3568938641477797;1.0061728395061729;0.1667670206784656;207.0;0.0
-0.2720452439846461;1.805392315650924;-0.4528705311575994;1.5536723163841808;0.3682863422281193;218.0;0.0
-0.4331742078109467;0.9562360871709048;-0.3850460870411086;0.9939024390243902;0.1550006181390029;228.0;0.0
-0.4690806720865766;1.4095628401887206;-0.5209398367857597;0.9941520467836256;0.2254551695205524;247.0;0.0
-0.5361833944655122;1.2423871228150616;-0.3690867712840132;1.0125786163522013;0.1985094452951379;221.0;0.0
-0.4115456139276618;1.115470245518318;-0.7711688461189992;0.9779411764705882;0.2900619353957616;181.0;0.0
-0.2040760104541594;2.3252306017104942;-0.4075391642060393;0.9731543624161074;0.4293877996733704;226.0;0.0
-0.2360947938737903;1.940807220302505;-0.4623353454885358;0.4696969696969697;0.409650403707915;199.0;0.0
-0.4607286864933193;2.29569407896655;-0.96451468060864;0.9478260869565216;0.5004382353728731;152.0;0.0
-0.5580687233934991;1.017780564870114;-0.3965244103802986;0.5958549222797928;0.1735228736520848;229.0;0.0
0.2482935255128013;2.162480929490033;0.0513475782443198;0.99375;0.3121385494289665;215.0;0.0
-0.488870780331891;0.9570527314131482;-0.3281985815020942;1.0;0.1473639841909078;226.0;0.0
-0.6820344457903296;2.0326919712418228;-0.8813090646316604;2.0865384615384617;0.5990579581398817;301.0;0.0
-0.3080167896564836;1.185839183219194;-0.4766779707443626;1.3421052631578947;0.2579972425150373;204.0;0.0
-0.5258902982942998;1.5153887789677996;-0.5201613000866743;1.0216216216216216;0.2355676731087591;234.0;0.0
-0.5523204537021551;0.8920625075014192;-0.4199627712264548;1.0718954248366013;0.1512240445560182;219.0;0.0
-0.4599705348188634;2.066610508365847;-1.102906905083946;0.990990990990991;0.4856169662794226;155.0;0.0
-0.2746994353231377;1.1770035826341334;-0.4944712454887213;1.0;0.2499237003530561;207.0;0.0
-0.5003038616628683;1.648128758040455;-0.4051611769339238;0.9887640449438202;0.2582423696160996;242.0;0.0
-0.4548518695565853;1.0826334674004772;-0.2521097534429437;0.9817073170731708;0.1597805577863838;231.0;0.0
-0.3883620438873237;1.1477293717329764;-0.5857571987949668;0.9932885906040269;0.2617383292625411;211.0;0.0
-0.4417210285392728;1.6772077745703284;-0.3902667547237627;0.9595375722543352;0.2474385677242597;246.0;0.0
-0.3591287457390367;1.1473118791028707;-0.5397066078418273;1.0352112676056338;0.2361828819611133;197.0;0.0
-0.5103389501928381;1.757775540460385;-0.5202162179186354;0.9826589595375722;0.2758196703885125;229.0;0.0
-0.4724812081541569;1.1699026620661153;-0.329441369305287;1.051948051948052;0.1706187511028587;215.0;0.0
-0.2719420168404338;1.299058842261544;-0.4582142981440527;0.9395973154362416;0.2701419780697833;204.0;0.0
-0.2736984298971632;1.2790889394954394;-0.3576799407395565;0.4801980198019802;0.2535218052549201;203.0;0.0
-0.2380356276675877;1.981709445356108;-0.4341880558612904;1.891089108910891;0.392638366562468;222.0;0.0
-0.5960562403945628;1.827609941314427;-0.4863161763386268;0.9941176470588236;0.2734195958197479;245.0;0.0
-0.4828055904490266;0.8863461908428483;-0.3925927503686709;1.0506329113924051;0.1476849967805219;221.0;0.0
-0.428065644747281;2.139722286982584;-1.0897784759432638;1.055045871559633;0.4744423765698081;154.0;0.0
-0.4900932840019701;1.8779505849849003;-0.3865655311723669;0.9488636363636364;0.2748413922977322;240.0;0.0
-0.5460096433424323;1.016478911904467;-0.4364841474225535;0.9709302325581396;0.1645379571808442;236.0;0.0
-0.4585877785679942;1.841776610148356;-0.6315903103691304;1.0897435897435896;0.4096870729474851;174.0;0.0
-0.2791931762958987;1.9828757917239328;-0.4629430115509712;0.9741935483870968;0.3902258995571735;210.0;0.0
-0.5757312522785938;0.9369538270605328;-0.423971953304765;1.325;0.1602640764673808;224.0;0.0
-0.1634195017556286;1.821002849400041;-0.3746046123792793;1.3263888888888888;0.3854344541835832;197.0;0.0
-0.326776128455473;1.1795390155439724;-0.5255609003504722;1.049645390070922;0.2461362375398172;199.0;0.0
-0.3078239100996057;1.2067651359277167;-0.4218824959638155;0.9863013698630136;0.2346044589703545;200.0;0.0
-0.5113052249319717;1.487734156033838;-0.587829656183497;0.9885057471264368;0.2417895959247985;240.0;0.0
-0.5496021084513514;1.583754112390843;-0.6137113423740422;1.0384615384615383;0.2417148796413492;245.0;0.0
-0.2959173417894353;2.038869622612824;-0.4948940851008933;2.185185185185185;0.417943891410626;215.0;0.0
-0.4600770098957274;1.7752592745285314;-0.3718929029855386;0.9831460674157304;0.2488299212231721;243.0;0.0
-0.3264639902687235;1.531147997631947;-0.5426381909547737;0.8415841584158416;0.3736271929713485;227.0;0.0
-0.5256596208128771;1.637120957492716;-0.525821320213612;0.9333333333333332;0.2592487327855883;247.0;0.0
-0.1696263279562377;2.2277932536616265;-0.3709784261688502;1.896551724137931;0.4197379084025766;221.0;0.0
-0.4032099141304098;1.0904614092329736;-0.6017560213983002;1.0080645161290325;0.2858131442502613;175.0;0.0
-0.3828936192434879;2.1847227543403904;-0.9525635869502972;0.9908256880733946;0.4875123742723496;154.0;0.0
-0.2182875830061241;1.7812204558302216;-0.3875912117752894;2.495495495495496;0.3865165867058512;160.0;0.0
-0.5209237722510182;1.549003999859267;-0.6172148492618982;0.9781420765027322;0.2576413628496904;251.0;0.0
-0.5166585532121145;0.994567595614402;-0.3419106751919551;1.0379746835443038;0.1576290238143403;234.0;0.0
-0.2406819779769494;1.5284432840976767;-0.532915100897145;1.0106951871657754;0.2097535343636844;239.0;0.0
-0.5939831469846004;0.7447697231518533;-0.4942309351857922;1.0;0.144993087948736;232.0;0.0
-0.5306755242743304;2.148607801573574;-0.9411105825987852;0.9728506787330315;0.4845858355955662;150.0;0.0
-0.2687262401491573;1.8635836579101823;-0.5019051426424784;0.9506172839506172;0.3336400420774583;242.0;0.0
-0.2893599059585404;1.2833760256542577;-0.4943760644233706;0.4106280193236715;0.273346787122641;200.0;0.0
-0.2237249852975789;1.863811891370189;0.1650274686207757;1.0354609929078014;0.3496041874933635;199.0;0.0
-0.5009275437641868;2.0055284850989903;-1.1705802360577795;1.0;0.4758555280304118;154.0;0.0
-0.3849651440013063;1.3227063642887664;-0.4535401001924851;0.9668874172185432;0.2751876769325022;206.0;0.0
-0.5789210846776766;1.6751610779237052;-0.459744422256052;1.0516129032258064;0.2613031246158581;237.0;0.0
-0.436097475992853;2.000488803125459;-1.150291680869882;1.036697247706422;0.5030893356818804;155.0;0.0
-0.1379733022829858;2.07713859547873;-0.3716847080484113;0.3409961685823754;0.3841777248418996;224.0;0.0
-0.112592932804018;1.3497335887158617;-0.3284582751730905;1.5154639175257731;0.3271403670688211;193.0;0.0
-0.3788830206844419;2.1595403263393016;-0.9740385977167942;1.0;0.5587493788893068;165.0;0.0
-0.4022750094282578;1.601571787410482;-0.4674283526373863;0.9585798816568049;0.4230522429642638;166.0;0.0
-0.4865839847614499;0.7974852170678033;-0.4127973131614757;1.0301204819277108;0.138291612181902;224.0;0.0
-0.3992651070866579;1.4080966309033445;-0.4940821543185186;1.0227272727272727;0.2237134823864244;233.0;0.0
-0.324628463673946;1.7393711749206755;-0.4679088954524372;1.0616438356164384;0.3482237479253559;197.0;0.0
-0.2662973633057628;1.2752776834489206;-0.4543887523052784;0.9929577464788732;0.2603638322383254;196.0;0.0
-0.3352216590404185;1.9901189767696963;-0.521666052889974;1.0463576158940395;0.4005999196276142;201.0;0.0
-0.1724927922396957;2.896772480654056;-0.4171876219408785;0.5186915887850467;0.7293186950923558;233.0;0.0
-0.3514802562338394;1.2054791317618374;-0.6496954026776173;1.0425531914893618;0.293544183532103;172.0;0.0
-0.3554437948332578;1.2720712189600942;-0.5790885280755877;1.0551724137931036;0.2820689180643827;188.0;0.0
-0.4908994570731301;0.9491020595310804;-0.426987158794719;0.9936305732484076;0.1529297337820264;239.0;0.0
-0.4991042543905198;1.3855067321639918;-0.6292731137162364;0.9885714285714284;0.2344260641093827;226.0;0.0
-0.4896432972228846;1.3797948609535686;-0.4911447896366597;1.0147058823529411;0.2280172940066719;204.0;0.0
-0.2391306644405206;2.264505686450226;-0.4312212378244867;2.024390243902439;0.4382645716707878;239.0;0.0
-0.3633812541443502;1.2363379187724444;-0.5773304944626383;0.9797297297297296;0.2731568279474328;208.0;0.0
-0.5776628893003812;1.70596667356219;-0.6058563347808148;0.9941520467836256;0.2640934722495605;248.0;0.0
-0.5307795167835978;1.7445584703024566;-0.4798039596222919;1.0112994350282485;0.2667543943787231;236.0;0.0
-0.3398316847104887;1.7691724852654165;-0.4989074688250085;1.7320261437908495;0.3723214300974439;212.0;0.0
-0.1481875087500715;1.8952093632379312;0.4534699174270054;0.377431906614786;0.3636783346782533;238.0;0.0
0.4624388794741149;2.3736331039263194;0.3989332471013272;1.0416666666666667;0.2529610858202198;187.0;0.0
-0.826110555603892;1.087668972285551;-1.045994331439041;1.0216216216216216;0.2199682576857516;239.0;0.0
-0.0919966480747246;1.9172265304803595;-0.254088181922747;1.2307692307692308;0.3372191588331254;223.0;0.0
-0.1780136915264466;2.0893165524531123;-0.384183196068699;1.0368098159509205;0.3957209212461463;237.0;0.0
-0.2833292874948194;1.2888192397141738;-0.4816804343165679;1.0133333333333334;0.2628293634711494;207.0;0.0
-0.4687905298798197;1.5161280334860332;-0.5511483081600546;1.0235294117647058;0.2361445594758523;251.0;0.0
-0.3454326654438526;1.2488085001739102;-0.6167467593612719;1.023076923076923;0.2965265161021588;182.0;0.0
-0.2941150473659348;1.329022764809212;-0.4816523812351134;0.9607843137254902;0.2689413985563036;202.0;0.0
-0.444790565934211;2.827253431547823;-0.8255300817938596;1.0;0.8059706488838777;311.0;0.0
-0.3443207359410086;1.1976543929075922;-0.5523150810447619;1.014388489208633;0.2585666502323773;199.0;0.0
-0.3033900889673261;1.1229881962958117;-0.4541531890089204;0.9928571428571428;0.2187324430357509;192.0;0.0
-0.5623855865168752;2.0366081166663808;-1.030534751357996;0.990909090909091;0.4618222996108844;155.0;0.0
-0.496585995308644;1.9744629313209363;-0.405328782102374;0.9939024390243902;0.294572894920949;238.0;0.0
-0.3777105194573992;1.1612386969952413;-0.5912814070351755;1.0486111111111112;0.2673886091048308;207.0;0.0
-0.3613277081007925;1.186697788214713;-0.40465521681695;1.0547945205479452;0.2500548331315676;200.0;0.0
-0.4256616562672619;1.464793331132115;-0.4677336794187667;0.9277777777777778;0.2309206384606349;264.0;0.0
-0.2020393685517212;1.795585622700372;-0.3936348365803767;1.9367088607594936;0.358015974849643;228.0;0.0
-0.5101222004158142;0.8730536278834946;-0.462294186216943;1.0063694267515924;0.1459522312209829;216.0;0.0
-0.3455116786485861;2.662422497174872;-0.4469860934745403;0.9824561403508772;0.607995127695224;234.0;0.0
-0.1986921386619877;2.1387415824563867;-0.3887223077011084;1.017751479289941;0.3819355540057138;216.0;0.0
-0.3592321751483182;1.0334596702951668;-0.5134594487566015;0.9726027397260274;0.2747735066788697;200.0;0.0
-0.2999894990455959;2.2327708412561704;-0.9736547167401344;0.9821428571428572;0.4872258833161061;156.0;0.0
-0.091976513742489;1.384576032238948;-0.4622235136876448;1.0359712230215827;0.2583061738392827;198.0;0.0
-0.2862147739630979;2.21818814240335;-0.9556281779978588;0.8083333333333333;0.4777990706477961;155.0;0.0
-0.3186734807898509;1.6239901493840034;0.0697020763213058;1.0263157894736843;0.3477362409530681;211.0;0.0
-0.2683528279817189;1.9453637824774097;-0.4986941414148569;1.097902097902098;0.3732806506053902;212.0;0.0
-0.3575482948080429;1.1481154644066427;-0.5387503882664426;1.028169014084507;0.2532711610281246;193.0;0.0
-0.639036677971611;1.3544748804182227;-0.7439620496846472;0.99375;0.2604244926842217;217.0;0.0
-0.1610075385859298;2.076815983612444;-0.2825937749148321;1.0;0.3811582131036368;212.0;0.0
-0.7369935555101684;0.7540814113641832;-0.6504399561747732;1.0454545454545454;0.1659797588001731;216.0;0.0
-0.2292562344135595;1.983048870579952;-0.3367753264913863;1.0;0.4060440968355235;168.0;0.0
-0.3450940460280836;1.057724031429233;-0.4795788340335;0.9859154929577464;0.2254759639960055;196.0;0.0
-0.3729252389980723;1.1082982705021267;-0.5620320265394152;0.9931972789115646;0.2280453737084763;203.0;0.0
-0.2961811999526717;2.2028096482174973;-0.789629006663638;2.2525252525252526;0.483116199970822;151.0;0.0
-0.5579532876963771;2.0567954924806373;-1.0031682753929714;1.0566037735849056;0.5014629244536901;153.0;0.0
-0.4285335119962772;1.5243261506942796;-0.5435124986060942;0.9720670391061452;0.2449624263423259;250.0;0.0
-0.506961858314986;1.7267464397178425;-0.3964696437452186;0.994413407821229;0.2616753748409832;252.0;0.0
-0.541308381437692;1.8360962647675685;-0.4982859536117189;1.0173410404624277;0.2732893909995552;237.0;0.0
-0.115960353523196;2.051083969309545;0.1894871744846405;1.0580645161290323;0.3672050861657858;204.0;0.0
-0.4693646963093983;1.4580216011669374;-0.5282706568078293;1.0344827586206895;0.2224988886548354;243.0;0.0
-0.5964762194182837;1.975366226152218;-1.1614851882524764;1.036036036036036;0.517710588557887;154.0;0.0
-0.6797421680451846;0.7293746588596423;-0.4973056385912234;1.0130718954248366;0.147165316062346;233.0;0.0
-0.7824279866535656;1.8436361089008888;-1.4055733636317251;0.972972972972973;0.4649432644316905;157.0;0.0
-0.3101423969505683;1.289397376096011;-0.5321811263522325;0.9779411764705882;0.2895560450447686;184.0;0.0
0.0046400137353775;1.8761595188166853;-0.105;0.9161290322580644;0.3141788650129491;200.0;0.0
-0.4680800708430073;0.9302392024002064;-0.3168518215037145;1.0440251572327044;0.1497158842506552;216.0;0.0
-0.2654461858350063;1.230498376388447;-0.5212213515161132;1.0;0.2610563949953198;192.0;0.0
-0.5650319202627134;0.7868411066669796;-0.489375655787845;1.0426829268292683;0.1431916411853866;220.0;0.0
-0.2482170576345765;1.2459199348477434;-0.4428892382218122;1.0;0.2613970226028277;195.0;0.0
-0.4949093206062038;1.136516623900505;-0.3595411001906348;1.0242424242424242;0.1985244223522237;213.0;0.0
-0.6012598139174955;0.8391790923166691;-0.4325189497196242;1.0121212121212122;0.1506904006620189;222.0;0.0
-0.145375687737905;1.918665225208756;-0.3957548498883296;0.3436293436293436;0.392232679066253;226.0;0.0
-0.5472897143960723;1.3217708289241268;-0.5287208908003995;1.0333333333333334;0.2416169615272178;212.0;0.0
-0.802078324820712;2.567724599678576;-1.7850232101965502;1.0091743119266054;0.8258722532219247;228.0;0.0
-0.5365973189619022;0.8371455223863374;-0.447424941401783;1.020408163265306;0.1428205510075294;212.0;0.0
-0.5117174361217344;1.385335815394845;-0.6310208340283301;1.058139534883721;0.2175020042908801;250.0;0.0
-0.5355005407732906;1.146261213074222;-0.3375070667934827;0.9876543209876544;0.1799153196856033;231.0;0.0
-0.5036936334212616;2.48265883140412;-0.72160454672473;2.3666666666666667;0.6100489193118623;311.0;0.0
-0.5227955926880369;1.4060757408651976;-0.5265535115940398;1.0276243093922652;0.2229426942527999;251.0;0.0
-0.5415494715779303;1.7410363303854242;-0.4240346953958953;1.067901234567901;0.2744330710209655;223.0;0.0
-0.115218523754904;1.884631327045488;-0.3248975868567598;1.015384615384615;0.3571544651487193;210.0;0.0
-0.2328396663318611;2.313605079375825;-0.395497323175425;0.3318777292576419;0.5070598440929079;164.0;0.0
-0.4303368172572565;1.6776998890904244;-0.5463007991024146;0.9456521739130436;0.2459314502029119;265.0;0.0
-0.4827849874353076;0.9223072791149494;-0.3501457991400372;1.0542168674698795;0.1500547303781093;222.0;0.0
-0.3548946973235439;1.2098423989232927;-0.5379498297054608;0.951048951048951;0.264142202768979;195.0;0.0
-0.5472044346558592;1.8375115232393888;-0.3667419989976654;1.0481927710843373;0.2769186107013573;246.0;0.0
0.3151655649836878;2.5067767786700106;-0.3850466710839819;1.0277777777777777;0.4455310377835269;162.0;0.0
-0.0851412676889418;2.2782935557089425;-0.2623316191326434;1.0753424657534247;0.464229850382454;164.0;0.0
-0.3027689935237215;1.3332360176868898;-0.577431639742809;1.0223880597014925;0.3026980803652323;190.0;0.0
-0.5350437575476584;1.5412771796420142;-0.4113558752915736;1.0355029585798816;0.2406702238728273;235.0;0.0
-0.5814608994449737;0.9024522464419252;-0.4800109349858357;0.9693251533742332;0.155722834921913;235.0;0.0
-0.1793927633072692;2.325373457674493;-0.7365147773511559;0.9636363636363636;0.4743393871744619;153.0;0.0
-0.1291050789670122;2.120160367316184;-0.3208058902364366;0.9695121951219512;0.4404609627610508;185.0;0.0
-0.5121596720448169;0.9674058247297012;-0.3638265920228607;1.3;0.1469555491405702;218.0;0.0
-0.2472593251407003;2.109860860583905;-0.9341704688754364;1.009090909090909;0.4743052442177871;152.0;0.0
-0.3370998723655373;1.548968022525671;-0.446383384059038;1.0116959064327486;0.2398994920950332;249.0;0.0
-0.4693084984410532;1.4800057814990235;-0.5760152354480524;0.9777777777777776;0.2292821405782922;246.0;0.0
-0.5196593389367223;1.9194937660906184;-0.430127628736234;0.9482758620689656;0.2840075446575507;255.0;0.0
-0.5774015392403269;0.8724458404792497;-0.51070825088675;1.0303030303030305;0.1563518051140004;227.0;0.0
-0.160490366976844;2.479938225681103;-0.7006691801587748;1.0089285714285714;0.6154423207372769;153.0;0.0
-0.5283002923874697;1.0226371959783327;-0.3615849594896694;1.0;0.1690805107023575;220.0;0.0
-0.4609750323296434;1.5515910739265706;-0.5421409868974559;1.0056497175141244;0.242992779743142;238.0;0.0
-0.5435134360392231;0.8713567757021276;-0.4258701908200828;0.9808917197452228;0.1530279309074365;230.0;0.0
-0.1174427969631928;2.306881077950353;-0.3201693298858131;0.9683544303797468;0.4376959702358465;231.0;0.0
-0.3037283511664846;1.1371660488615083;-0.3918722024237161;0.9583333333333334;0.2251491587705124;194.0;0.0
-0.5861157377534258;1.6809852043156208;-0.550424655268161;1.023391812865497;0.2664541558836326;230.0;0.0
-0.5940652452404585;0.92596976842364;-0.5094595784648679;0.9518072289156626;0.1614940875790191;234.0;0.0
-0.5881336156065693;2.14826898336821;-1.1906229801203527;1.0;0.4809008318765633;155.0;0.0
-0.5001914478362967;2.0925010595778315;-1.0842840259500663;1.0458715596330277;0.4972663356500358;158.0;0.0
-0.3831583822780515;1.7814060159140843;-0.456968060696095;0.9558011049723756;0.2509753568176466;247.0;0.0
-0.4706482229899357;1.732001379284067;-0.5513428320000225;1.0;0.2556632573053636;253.0;0.0
-0.254534257127798;1.1323121615948917;-0.650791409799235;0.9694656488549618;0.2858007242436886;188.0;0.0
-0.3614450958290482;1.2278847362712113;-0.5536299365014005;0.9788732394366196;0.2777036506807787;200.0;0.0
-0.3250390573676287;2.791159081585969;-0.7797544088147847;0.5205479452054794;0.7937076763768974;304.0;0.0
-0.4039968938539571;1.2205010424289138;-0.6013580520614701;1.03125;0.274716927021874;193.0;0.0
-0.6733392455269338;1.8275535763171968;-1.2203832869132096;0.981981981981982;0.5043537031371699;141.0;0.0
-0.2818973761304196;2.1291652586827103;-0.4740411425576157;0.9866666666666668;0.4076080576355291;206.0;0.0
-0.1806607882048886;2.0368204598182937;0.453060286423197;0.4827586206896552;0.4181031242400501;203.0;0.0
-0.3515152156267812;1.209441474857368;-0.5600717360405132;0.9864864864864864;0.2703198053153248;197.0;0.0
-0.4184131333570868;1.699847469818072;-0.4933271087066799;0.9940828402366864;0.2542136972147542;240.0;0.0
-0.2942672279152615;1.9634515622930249;-0.2636574735873641;1.034965034965035;0.2792150369290731;227.0;0.0
-0.2850362187664709;1.7296116559685744;0.0655580989734861;1.0426829268292683;0.3344232707823074;215.0;0.0
-0.4946659631065601;0.9125792939240992;-0.3790570383639903;1.0123456790123455;0.1479945060791048;218.0;0.0
-0.6329091266624531;1.9208758512559416;-1.2654189945553984;2.1515151515151514;0.5012298455047332;153.0;0.0
-0.6644081014408914;1.8953434059459653;-1.2962580499581209;0.4841628959276018;0.4906904162146581;154.0;0.0
-0.5314197806683689;1.8185471302855127;-0.513279362075754;1.0;0.284732956088469;241.0;0.0
-0.2811402270845011;1.2570151544737704;-0.4914321608040202;0.9594594594594594;0.2980944132024461;165.0;0.0
-0.3183783409544428;2.0745263939019107;-0.54825781146996;0.3708333333333333;0.4918931080749598;167.0;0.0
-0.2925436262873681;2.57444612598228;-0.4031685578124182;1.0276497695852536;0.6315598033628896;229.0;0.0
-0.449383006705547;1.561290071600584;-0.5695111618768505;1.0333333333333334;0.2364462305878543;249.0;0.0
-0.465336008684762;1.6648058583550949;-0.6004587922401425;0.96;0.2538792959937457;240.0;0.0
-0.1580028309895418;2.1590323368187176;0.2463190578004863;0.2958801498127341;0.4072087848366417;220.0;0.0
-0.4743616239942893;1.7315106669816407;-0.4689957910314601;0.958974358974359;0.2437354421636536;240.0;0.0
-0.616329457239568;2.010141565834324;-1.2719636528191969;0.9821428571428572;0.5158964811089181;153.0;0.0
-0.2989075178084559;1.284279470632685;-0.5247610617200504;1.0218978102189782;0.2662329430293194;198.0;0.0
-0.2327914705690022;2.0203091726045432;-0.4084852428968817;1.0802469135802468;0.3393771755489383;290.0;0.0
-0.5724465952638147;2.04046839799647;-0.9606544527182362;1.0377358490566038;0.4917623581987248;151.0;0.0
-0.2936480675931185;1.9174005002205523;-0.4505475520973742;0.9161676646706588;0.431601229111659;186.0;0.0
-0.2797141217826273;1.3484941315681596;-0.4486575469936275;1.0;0.281877644953566;197.0;0.0
-0.5214904440834928;1.0721405504316204;-0.4614308740160698;0.9570552147239264;0.1835609958641063;228.0;0.0
-0.2114393659544649;2.074638378423959;-0.5189255585176629;1.089171974522293;0.4357742380136818;165.0;0.0
-0.4459766249155461;2.145523070002996;-0.9435120789777416;1.0267857142857142;0.4687376933879756;154.0;0.0
-0.4663639150379501;1.4564478814835269;-0.612383135884611;0.9700598802395208;0.2223997947087755;269.0;0.0
-0.5056547452959876;1.8453748874456728;-0.3750573562834309;1.047337278106509;0.2715050865931218;236.0;0.0
-0.4743405760939257;1.1691525462381622;-0.3221621429232276;1.3801652892561984;0.1789264673078112;230.0;0.0
-0.5428831119569836;1.6574825355797174;-0.5019583584370665;0.9657142857142856;0.2601784169172379;246.0;0.0
-0.4730442291928632;1.435492792633995;-0.4078524844633595;0.9071428571428573;0.23643227549814;208.0;0.0
-0.4341682817389202;1.8073483317928507;-0.4731955967159982;1.0411764705882354;0.266051300529367;227.0;0.0
-0.4789618911833179;1.5427988255231095;-0.5818354480399862;1.022857142857143;0.2371950589744248;256.0;0.0
-0.3909997027037111;1.2009842687605137;-0.3003380489392664;0.9693251533742332;0.1906313734148913;216.0;0.0
-0.3182771629715179;1.2631721027746845;-0.5952643903717398;1.0;0.2862175642278176;208.0;0.0
-0.5794570848348419;2.613818372694801;-1.2838856945235189;1.0528846153846154;0.7205610815980827;310.0;0.0
-0.5029941528580177;1.1820501490729582;-0.3931887072438685;1.031055900621118;0.1904696622340488;217.0;0.0
-0.4812060917973434;1.8954953046975247;-0.3797678557307076;1.0571428571428572;0.2665287714264303;240.0;0.0
-0.3317419159205485;1.209321662870316;-0.470258147771764;0.9517241379310344;0.253040924948165;200.0;0.0
-0.5037064987278724;1.0263521978500392;-0.3496086972040032;1.0;0.1737326307937993;218.0;0.0
-0.4765586174198342;1.0005534999687593;-0.38336084789603;1.0064102564102564;0.1570694186408284;231.0;0.0
-0.4355931657255163;1.1183294340975056;-0.6132953315665913;1.0202702702702702;0.2612425300740114;210.0;0.0
-0.492504296240878;1.5458834240243902;-0.3483167626361918;1.0060240963855422;0.1493626714438425;231.0;0.0
-0.1549426943001274;2.0727241664121205;-0.3844599245495919;1.0179640718562877;0.3886580836150839;227.0;0.0
-0.5012167725426712;1.798505645593563;-0.3942437569380321;1.0179640718562877;0.2600673502455327;235.0;0.0
-0.197660149222069;1.994137913426402;0.2197996511019789;1.1474358974358974;0.360367404235587;198.0;0.0
-0.5841234684048068;0.8061221716251445;-0.4656073823201603;0.9933774834437086;0.1401378810908089;228.0;0.0
-0.2289449382683901;1.2453109896512116;-0.343634792328262;0.9722222222222222;0.2353266465227254;199.0;0.0
-0.2598001476147367;2.730803621206346;-0.445430490135821;2.2058823529411766;0.6188449849521117;211.0;0.0
-0.804457159493235;0.8264628506436211;-0.9196588342117952;1.0289017341040465;0.2067902952679488;239.0;0.0
-0.455988034288588;0.8660573927509694;-0.3811087821143793;0.9746835443037974;0.1324083000163888;213.0;0.0
-0.2455258953144167;1.8372726269163029;-0.4305931164638631;0.99438202247191;0.3744798146853476;230.0;0.0
-0.467204439804517;1.7370410275188446;-0.6071457018992594;0.9945652173913044;0.2562373521544864;254.0;0.0
-0.1705019958707847;1.7859320463431625;-0.3256329892936463;1.0520231213872833;0.2428102621704554;244.0;0.0
-0.4211128346526604;1.2022596412388298;-0.3356367402816554;0.9935483870967742;0.1698036904689614;216.0;0.0
-0.5778914622343263;1.8188883757405536;-0.471947357908491;0.9772727272727272;0.2838894334787411;235.0;0.0
-0.5030378897402821;0.9694564994003584;-0.7641968357170293;1.0444444444444445;0.2553862294677803;195.0;0.0
-0.2632948518911633;2.3950150013723945;-0.8106480593386178;1.02803738317757;0.5628767506901526;154.0;0.0
-0.3006969627887723;1.229033062941875;-0.5042410199907376;1.0344827586206895;0.2546909712098365;199.0;0.0
-0.3416746632520421;1.2165402949850574;-0.5330834747717212;1.7325581395348837;0.259114787904749;196.0;0.0
-0.2416447498450811;1.270060915787289;-0.6189479812221317;0.9854014598540146;0.2734962324649657;197.0;0.0
-0.6114512547251726;2.345119782762732;-0.8317650703148539;2.074766355140187;0.6185324733091124;232.0;0.0
-0.4597834551337416;1.0460380885723255;-0.3519837684338996;0.9461077844311376;0.154909423803409;234.0;0.0
-0.1793053682359214;1.4449406310138169;-0.2790360825168155;1.0142857142857142;0.2937063134596548;187.0;0.0
-0.4158770009733427;1.192257011718851;-0.5038228733215825;0.993103448275862;0.248651031230734;202.0;0.0
-0.4333448658845943;2.3491434913404845;-0.6400449053868258;1.0514018691588785;0.6423606023889789;304.0;0.0
-0.4238231546289419;1.4374533921205084;-0.3728701437429553;1.083969465648855;0.2499004567947838;190.0;0.0
-0.5335552436451281;0.8861857586829347;-0.4435185292675114;1.0060240963855422;0.1590873855712893;226.0;0.0
-0.5628548155598816;0.8958732815740368;-0.4944656864996853;1.4285714285714286;0.1598559586817035;228.0;0.0
-0.5020389309026333;1.1409687278729117;-0.3370820591099365;1.019108280254777;0.1706548760826138;222.0;0.0
-0.5057182997843901;1.670124897426239;-0.5996294195448187;1.0451977401129944;0.2568117811412221;235.0;0.0
-0.471989680951764;1.4787673552339418;-0.6095375618347385;0.9664804469273744;0.2359232885612897;244.0;0.0
-0.5016702735329988;1.685734426943606;-0.3874866101035497;0.9825581395348836;0.2623636751551688;238.0;0.0
-0.4389913912944863;1.1269697622349084;-0.6648279594676232;0.9927536231884058;0.2998822280939307;184.0;0.0
-0.3927334359625231;1.246403750506666;-0.536433987801077;0.952054794520548;0.2692817526556211;198.0;0.0
-0.2774749349401244;1.230154102173406;-0.4918141846555676;0.9867549668874172;0.2487693204595641;204.0;0.0
-0.5840333753497456;1.7174881757641032;-0.5635645542466381;0.9763313609467456;0.2627697562101815;240.0;0.0
-0.4788017412334843;1.1672350709137498;-0.402956908223461;0.9820359281437124;0.1905427742179009;234.0;0.0
-0.5756622510970182;1.948681715844319;-1.2642825968723173;0.502262443438914;0.5532224892704597;152.0;0.0
-0.5188355070014785;1.6261282521751472;-0.4211990633771025;1.04;0.2478170581242948;244.0;0.0
-0.2270722282679974;1.3481805759999523;-0.4578738141578478;1.0212765957446808;0.2704572643366621;198.0;0.0
-0.5460233746945666;1.524671061345117;-0.6013182400421715;0.9358288770053476;0.2483870835310798;236.0;0.0
-0.4180452275777799;1.0848663175025015;-0.7405344772883832;0.9791666666666666;0.2831610434639938;196.0;0.0
0.0396122084238184;3.0415539715185225;0.0081350149069117;1.0232558139534884;0.4591970957086992;196.0;0.0
-0.212066972919434;1.2529643475098309;-0.5602147603787756;0.992063492063492;0.2831506266703217;174.0;0.0
-0.5140706295867552;1.6194425492898894;-0.5484578314679066;1.0123456790123455;0.2347580090954941;266.0;0.0
-0.6653995477986752;0.7951855209891655;-0.56680566084706;1.0206896551724138;0.1672941878112251;206.0;0.0
-0.6052195174766875;1.6361078472501638;-0.4903616032044687;1.0;0.2747869046258103;252.0;0.0
-0.5117387071601711;1.7347223777113348;-0.4283808537883548;1.0063291139240509;0.2681244963078441;224.0;0.0
-0.4839522562064773;1.32810992295063;-0.6007083309699269;0.9882352941176472;0.2177104543462906;257.0;0.0
-0.4731385350976873;1.8293233010956067;-0.4748398888008447;0.9771428571428572;0.260702428419543;254.0;0.0
-0.522133657966064;1.6861940262275006;-0.4884518074170011;0.9653179190751444;0.2570275324239814;238.0;0.0
-0.5125871698807191;1.5458834240243902;-0.3881845426801406;1.2222222222222223;0.1666186597889145;222.0;0.0
-0.3409246446985097;1.1973049633338684;-0.5619055365257941;0.9863945578231292;0.2895382743864934;172.0;0.0
-0.5286279706253451;1.0136577915626108;-0.7233639988392654;0.9727891156462584;0.2806446974257364;177.0;0.0
-0.6544250146274002;1.7816382740971457;-0.5683558405308504;1.010989010989011;0.2717594451372957;231.0;0.0
-0.5269695550397087;1.4675553194756925;-0.5355302233884474;0.9608938547486032;0.2380643600485184;256.0;0.0
-0.4231614479841099;2.2169258047303244;-0.9009939274652184;0.981981981981982;0.5066840448804812;156.0;0.0
-0.4689397804001028;1.5504163807627722;-0.4967006629267879;1.0451977401129944;0.240359178849299;244.0;0.0
-0.5057126376834941;1.7540372044040855;-0.4543018591047926;0.9176470588235294;0.2706360692562377;249.0;0.0
-0.4442773645557101;1.6689995375673037;-0.4633849022919187;1.011111111111111;0.2351036044174222;239.0;0.0
-0.4376251446732069;0.9565584537002132;-0.3680027299611113;0.961038961038961;0.145938253474049;226.0;0.0
-0.2490237188724015;1.2987976272525754;-0.4322279767426812;0.98;0.2676551233160651;202.0;0.0
-0.1519185727201762;1.6896511742257427;-0.3145251773877332;0.974025974025974;0.2971270082076901;219.0;0.0
-0.8123147499898383;1.2153330163849876;-0.960660171735449;0.949438202247191;0.231430485845498;255.0;0.0
-0.267850187185098;1.2699864120482915;-0.4730256176607422;1.0068493150684932;0.2589874993526435;197.0;0.0
-0.2778301740598203;1.1133755459091736;-0.4885371841498483;0.9801324503311258;0.2450742951103633;206.0;0.0
-0.426885127777627;1.993261356850792;-1.0287860385751415;0.9732142857142856;0.4848428639553281;143.0;0.0
-0.4380870998208482;1.6484381777901802;-0.5364902999859118;1.0;0.2490644247203836;244.0;0.0
-0.3058485234614557;1.2337596646352609;-0.4815653671767669;0.9788732394366196;0.2673607535678741;193.0;0.0
-0.3462058870268196;1.7595377341836866;0.0180656844072424;1.0;0.3473017833488184;220.0;0.0
-0.6463662869763992;1.6187660431251218;-0.6315861820582731;0.988826815642458;0.2576412872763926;241.0;0.0
-0.5554075865041637;1.313459003590503;-0.5302337445788466;1.041958041958042;0.2382514275424372;175.0;0.0
-0.3609740708906811;1.1929528116390256;-0.5311444589992339;0.9931506849315068;0.2509316073925982;198.0;0.0
-0.5458567247713153;1.0628352354196482;-0.4039919857734745;1.0460526315789471;0.164670671526484;214.0;0.0
-0.3406558473522626;1.9095638087248048;-0.7929344504499547;0.9814814814814816;0.4432853500127853;151.0;0.0
-0.1512666565625684;0.8398506932607122;-0.1785848820770011;0.9691358024691358;0.1426311323883903;194.0;0.0
-0.3889569535328377;1.7669426367861647;-0.4067620988876668;1.0;0.2660385664187774;244.0;0.0
-0.5873824534587445;1.1408017416095793;-0.4767935854690714;0.9302325581395348;0.1955455637795801;238.0;0.0
0.0315595713411793;2.513863148935073;-0.4244895016837596;1.082191780821918;0.4775971164223351;158.0;0.0
-0.4639710351452067;1.3999650125724363;-0.6445895918029656;1.0217391304347827;0.2295544957686164;251.0;0.0
-0.3429962940720953;1.61488675422351;-0.2188471293539329;1.0266666666666666;0.2455028771162939;266.0;0.0
-0.1435245956264019;1.988102748762744;-0.3429885003551183;1.5344827586206895;0.3511580651541974;222.0;0.0
-0.5491020284279807;1.8090292675636404;-0.5480260413952848;1.04093567251462;0.2669927139561505;237.0;0.0
-0.4870415429549921;1.909177902105448;-0.4477974815411366;1.0344827586206895;0.27976082564528;239.0;0.0
-0.4835614024717569;2.112893561563668;-1.2307214618608309;0.5714285714285714;0.5567927085444965;146.0;0.0
-0.5861831221344191;1.6355784868497942;-0.5037377335737367;0.9456521739130436;0.2701666662730027;255.0;0.0
-0.6184255057002631;1.787557025958855;-0.550162562245573;1.0;0.2793928803211845;240.0;0.0
-0.2143749678633369;2.1254990327937096;-0.4426595060366531;1.0;0.4037761293872242;237.0;0.0
-0.3416213634057153;1.2161875325189568;-0.5367888102141185;1.4577464788732395;0.2679308227612732;197.0;0.0
-0.3318287772538997;1.232155681429163;-0.552308426051953;0.9927007299270072;0.2906087454799641;186.0;0.0
-0.3727690101502116;1.6937840067408525;-0.4338111099324305;1.0662251655629138;0.2395517336277756;242.0;0.0
-0.2530500340734203;1.2477988953803223;-0.5898849865746023;1.0381679389312977;0.2746421717638012;189.0;0.0
-0.5231779706954844;1.0210740111399292;-0.4772559091747496;0.9825581395348836;0.1740678076504383;212.0;0.0
-0.5674705142574723;1.6688627881771267;-0.5123651857654098;1.0168539325842696;0.2588090551414436;260.0;0.0
-0.3587889125896018;1.118003149447389;-0.7126903915225072;0.9787234042553192;0.3352428003045097;196.0;0.0
-0.5056142792378775;1.5329804874651924;-0.5410210026171367;0.9659090909090908;0.2429415996081269;264.0;0.0
-0.1051011225978199;2.039553637783152;0.2013903686458156;1.0602409638554218;0.3512470090844195;207.0;0.0
-0.5379407389709907;0.9917808392807091;-0.5494978627448747;0.9821428571428572;0.1761301409808063;224.0;0.0
-0.2412655792760535;1.7425000282142975;-0.4115013431678122;1.5;0.3912419555042086;186.0;0.0
-0.4096999196606033;1.0900430346292622;-0.5996080565905395;0.9712230215827338;0.2847121567380655;193.0;0.0
-0.2814622009818077;1.4987046194770874;-0.3772961074935748;0.9333333333333332;0.2487990114048575;189.0;0.0
-0.5020421234502375;1.7970682198417467;-0.4601717527548279;0.9606741573033708;0.2558634943146684;256.0;0.0
-0.5392400630749907;1.821308754658363;-0.4456918759608055;0.9939024390243902;0.2827940048493708;230.0;0.0
-0.5987145523908755;0.7694384306463067;-0.484455474087231;1.0;0.1386605907268457;215.0;0.0
-0.5580512898295411;1.9439214265888944;-0.4247021281573919;1.0186335403726707;0.3011107138603934;221.0;0.0
-0.3654356159976048;1.0868013536511425;-0.5620861880481202;1.0068027210884354;0.2540364067133525;207.0;0.0
-0.4275135633514809;1.0808667956598337;-0.363237072498388;1.0320512820512822;0.1634262793928151;219.0;0.0
-0.263317688171699;1.531096431480487;-0.2648600858250701;0.9391891891891893;0.2247402815673828;198.0;0.0
-0.1454596635740381;2.33353441234512;-0.343398180759692;1.0514285714285714;0.4240042027669157;225.0;0.0
-0.5065358395134476;1.4756184774020913;-0.6630309525339054;0.9417989417989416;0.2405798464493245;246.0;0.0
-0.4547878124983208;1.876296163839421;-0.4776145575805209;1.0232558139534884;0.2593303776409312;246.0;0.0
-0.6959445771825485;2.537977030587432;-1.6602882738107554;0.9469026548672568;0.7964766524348361;227.0;0.0
-0.2353247157859148;2.16285159775704;-0.4295415192633247;0.9938650306748468;0.432230130666798;207.0;0.0
-0.4676744218971212;1.74166343373934;-0.4099536863387636;1.0116279069767442;0.2644624543041054;229.0;0.0
-0.5351806367699845;0.9467450967077936;-0.7558594343748545;0.946969696969697;0.2961774830708163;176.0;0.0
-0.192928516014937;1.246536501140956;-0.4311476486945689;1.0;0.2734176764156624;164.0;0.0
-0.5999089306869908;2.605479463371177;-1.0922306620626112;1.0272727272727271;0.8782751215337409;242.0;0.0
-0.4845278044002189;1.84769985221361;-1.1637966889829836;2.018181818181818;0.474903854567833;158.0;0.0
-0.4636891888049763;0.919117640566864;-0.4380847358846722;0.9813664596273292;0.1473032710982195;230.0;0.0
-0.4383170307227821;1.78771133060661;-0.3858448158229088;1.0170454545454546;0.2539991396063711;243.0;0.0
-0.3793726479012004;1.244711667882452;-0.5629027844262121;1.0352112676056338;0.274234023961034;202.0;0.0
-0.3239089739511817;2.1469074412442737;-0.5311578141401189;0.9444444444444444;0.4026433331202665;262.0;0.0
-0.4295583668356075;1.487410564782215;-0.608716829215836;0.988950276243094;0.2334464030148183;242.0;0.0
-0.4355931657255163;1.0495583712223864;-0.3442680265391713;1.1216216216216215;0.160320843695381;211.0;0.0
-0.5285739431259352;1.1556913648317608;-0.3160650196250842;0.9875;0.1718937254572547;228.0;0.0
-0.29283375214334;2.0088127425257785;-0.4807882525270753;1.019108280254777;0.3931123895335021;230.0;0.0
-0.4973411672067829;1.2576806402829406;-0.4168271054175169;0.6815642458100558;0.2068208236944221;226.0;0.0
-0.5348968100107564;2.003212225394798;-1.239404828668293;2.107843137254902;0.4855270320646033;154.0;0.0
-0.6146989354690084;0.8133295507835718;-0.4951498889740441;0.975609756097561;0.1606394982779473;229.0;0.0
-0.2183079170981029;1.6842800529366189;-0.4341811191449901;1.606060606060606;0.3555659600637777;221.0;0.0
-0.2576070597118816;1.2140003760595277;-0.4273198375827926;0.9215686274509804;0.2369777486763199;203.0;0.0
-0.3915987959048226;1.1817436603253966;-0.293379778728515;1.070063694267516;0.1682225535252715;234.0;0.0
-0.4018244316479389;1.77355670173629;-0.3338520195537265;0.9937106918238994;0.2628046141394933;234.0;0.0
-0.2108201185902056;2.2439829068683994;-0.4263803289287862;1.031055900621118;0.3763065378198093;267.0;0.0
-0.632584306369472;0.8582906853101108;-0.5528977545825382;1.0318471337579618;0.189842322165348;224.0;0.0
-0.5490577033270228;1.4022335775515211;-0.5871558514774742;1.089385474860335;0.2398304993066517;246.0;0.0
-0.427986757965741;2.053353409797632;-0.973509294648329;1.036697247706422;0.49883729173065;135.0;0.0
-0.5347643344906277;0.9759004014689328;-0.4661387338564454;1.018987341772152;0.1763837040133773;215.0;0.0
-0.4571424593217837;2.0032532471102864;-1.0058666361844335;1.0;0.4559891327438167;151.0;0.0
-0.1986819670240357;2.1096013042596646;-0.4319890756177669;1.0333333333333334;0.3980535263265106;206.0;0.0
-0.3627534229264921;1.1288021379690865;-0.5674856777496179;0.9856115107913668;0.2374830158426042;197.0;0.0
-0.4537897773151748;2.2137740343750982;-0.7968360250563659;0.990909090909091;0.4953027064796433;153.0;0.0
-0.1778218431256876;1.8500302936544355;-0.3606331372879439;1.3184713375796178;0.3492095824030701;248.0;0.0
-0.2570580551596794;1.272028944133974;-0.413644064244539;1.0344827586206895;0.2517727627270415;211.0;0.0
-0.4931286126202723;0.998992925368074;-0.3996067300751772;0.9761904761904762;0.158580711186418;235.0;0.0
-0.4018625606275886;1.1309722796575914;-0.2964864178443072;1.0;0.1627347123425917;224.0;0.0
-0.2048752510548683;2.071295281442305;-0.4834081312764743;1.870967741935484;0.4274849223929409;229.0;0.0
-0.5564193904707705;1.2757723667454;-0.5356612721268685;0.984375;0.2196959119309106;235.0;0.0
-0.3252312407204408;1.289271024127378;-0.6599050736615087;0.9765625;0.2870358723026691;177.0;0.0
-0.4599107938655326;1.161557060038052;-0.404243639349828;0.9935897435897436;0.1950545357910801;228.0;0.0
-0.4124861471965757;0.9455644344609948;-0.3733773778468053;1.0254777070063694;0.1432319246845176;218.0;0.0
-0.5357239289132881;1.086124290017591;-0.3660605446701305;0.987878787878788;0.1710591103330768;229.0;0.0
-0.909488955351038;1.7026401552981618;-1.3934629183664284;0.9910714285714286;0.4689443954242849;156.0;0.0
-0.5936709601630308;0.9973634266107312;-0.3992842979317484;1.21301775147929;0.1802817666992938;223.0;0.0
0.0213028933503348;0.6396425237867421;-0.2584629014585921;0.9407894736842104;0.1298300629369806;206.0;1.0
-0.015;0.8189469166011524;-0.3207487448463565;1.0134228187919463;0.1627312769502614;200.0;1.0
0.0717196156046948;1.361370519723267;-0.1051683723422058;2.0288461538461537;0.193183667153007;224.0;1.0
-0.2601655601821219;0.5458553484352447;-0.5546086518393943;1.0068027210884354;0.1298097862591136;360.0;1.0
-0.1990236842220945;1.6881284284474327;-0.4037634998128683;1.035294117647059;0.2940159949649064;246.0;1.0
-0.4590988609287358;0.601687947355358;-0.4282527906027863;0.6808510638297872;0.1859006741410366;207.0;1.0
-0.2577386934673367;0.4477620954922813;-0.5885445915660298;2.621212121212121;0.1100402993663978;347.0;1.0
-0.2450716002926081;0.3029178638664827;-0.5193484161505125;1.0431654676258992;0.1272596538201245;194.0;1.0
-0.3194677633538714;0.2107944057883791;-0.6857779427055705;0.3846153846153846;0.0978554264206155;359.0;1.0
-0.3009387713983628;0.5693025925354231;-0.6218264338432686;0.4010554089709762;0.1607589294413525;198.0;1.0
-0.2745093522031102;0.4486827096369082;-0.6748271306454953;0.3557692307692308;0.1553689034607075;210.0;1.0
-0.2870383522158904;0.3869698401729475;-0.5767376640367061;0.4108761329305136;0.1170251790793057;349.0;1.0
-0.1477342371612012;0.5946700479307999;-0.5035876445594808;1.0;0.1475843581022685;198.0;1.0
-0.24;0.6478738670379928;-0.610747595613966;1.0;0.1633518621330908;200.0;1.0
-0.1734295709741196;0.7086189512789626;-0.4845681969832077;2.840579710144928;0.1678320723177677;199.0;1.0
-0.0803612289399279;0.1937104789770751;-0.2937776608144398;0.3977591036414565;0.0930616554153806;197.0;1.0
-0.7045541182934106;1.7331731232182466;-0.7199559072220564;1.1257142857142857;0.3701262701737592;248.0;1.0
-0.3717711128062692;2.3515670119606464;-0.7124145178174905;0.9818181818181818;0.4888055239083747;149.0;1.0
-0.2451791354711315;0.8782433865570275;-0.2090530238137248;1.1225806451612903;0.1663403788448967;211.0;1.0
-0.0994855857249124;0.945691137522798;-0.3802043379838224;1.251968503937008;0.1822425306493348;181.0;1.0
-0.0904952914783075;0.4900822513966335;-0.3627232409460655;0.3788659793814433;0.1315512713453396;205.0;1.0
-0.2096457942629225;0.5514915363279146;-0.5573236950943117;0.9448275862068966;0.1578210014497267;207.0;1.0
-0.1479819153589589;0.4559660449892743;-0.3822981201272905;0.2661870503597122;0.1299794859754994;198.0;1.0
0.1022228915151302;0.7265624036114569;-0.1623037578792067;2.601398601398601;0.1305032875618872;197.0;1.0
-0.0154661223543864;0.8014018775186288;-0.3261832729108991;0.993421052631579;0.1517030796726897;205.0;1.0
-0.1685491888385743;0.6526302272551547;-0.5209989076260457;0.3094262295081967;0.1586755897651551;207.0;1.0
-0.0919670616875795;0.830150120533291;-0.4319548757460244;1.0408163265306123;0.166148924213808;206.0;1.0
0.0763610051888165;1.7862587143648552;0.1231514887009755;1.1239669421487604;0.2660513876909481;167.0;1.0
-0.2158559308779442;0.4030734256607181;-0.5246232230071356;0.4164305949008499;0.1136238407370717;358.0;1.0
-0.125491883931183;0.5378517084544502;-0.5518011877051218;1.020408163265306;0.1157185932124702;365.0;1.0
-0.1764295216149518;0.2623177079879095;-0.4710988427269295;2.8646616541353382;0.127155666691893;203.0;1.0
-0.3052391814574361;0.3898277251962952;-0.6143215381136391;0.3837837837837838;0.1481323168184401;205.0;1.0
-0.0746331598872259;0.626779854393865;-0.4756788771317288;1.0283687943262412;0.1492869278307535;200.0;1.0
-0.2308760455189148;0.2439016703459233;-0.5609170573521103;2.051470588235294;0.1355605834264914;205.0;1.0
-0.1822920970487417;0.5183298117003595;-0.5053388536869176;1.0134228187919463;0.0977860610320524;484.0;1.0
-0.1733554671708317;0.3861438456631457;-0.474728593870897;0.3714285714285714;0.1238000510092342;199.0;1.0
-0.2709598942341809;0.1905023703435593;-0.2694543731449482;0.9074074074074074;0.1005769677992825;186.0;1.0
-0.0934422386778302;0.6992905158313256;-0.3933650034161121;1.0069444444444444;0.1589523696931343;196.0;1.0
0.0853419513302949;0.8005621082363363;-0.3893322914993214;0.9121621621621622;0.1611810395205077;203.0;1.0
-0.207362372632596;0.5131494323049594;-0.5113908226473821;1.0198675496688745;0.1450405496149387;207.0;1.0
-0.1550581035587133;0.5921198924474984;-0.5326209009975744;1.0068493150684932;0.1480463314309916;209.0;1.0
-0.1135682110244426;0.5018612270127689;-0.4821312479691644;0.9933774834437086;0.1461946138769418;210.0;1.0
-0.2033928714885635;0.6041916976794925;-0.5047466006949887;0.7992047713717694;0.1543188486122167;198.0;1.0
-0.1767639503765732;0.5478679758109023;-0.4563441951178166;2.225;0.1445611906955088;199.0;1.0
-0.2140871677426581;1.262563353515835;-0.2536412035871648;1.9405940594059403;0.2071696727467708;261.0;1.0
-0.2647694170066875;0.3579518307173304;-0.5841884517639533;0.4104683195592286;0.1443619444878332;209.0;1.0
-0.2677243713909494;0.2915808319438167;-0.5398338000408193;0.9183673469387756;0.1265592683920737;207.0;1.0
-0.3795478744415411;0.2547418739367013;-0.6653854444787278;0.3915343915343915;0.1399361896254203;205.0;1.0
-0.1852153690574076;0.7053057831438315;-0.5156377245389919;1.0486111111111112;0.1567773474435322;199.0;1.0
-0.1971853282100349;0.7150992370146596;-0.4629554519413604;0.4180790960451977;0.1504025595103412;212.0;1.0
-0.1099068843084411;0.3764933999261515;-0.4456620607989782;0.93006993006993;0.1245903537867739;202.0;1.0
-0.3172221103551851;0.4730476087675335;-0.6616277864222582;1.3065693430656935;0.1513985325049778;207.0;1.0
-0.1758546329569237;0.4855317139694829;-0.4999150938969591;0.3712871287128713;0.1300254413007802;323.0;1.0
-0.2062550086736335;0.4826720919130168;-0.5040372663286292;1.0277777777777777;0.1103562705502759;377.0;1.0
-0.0314311273518539;0.748512445101434;-0.372988637842535;0.993103448275862;0.1529384095464163;196.0;1.0
-0.1970630454126274;0.6130728313191518;-0.6530451895173971;0.9735099337748344;0.1302535366387859;363.0;1.0
-0.2717839001159038;0.5099335319034596;-0.6052980373012307;1.0205479452054795;0.1519902328518514;207.0;1.0
-0.1582663316582915;0.6541414718914379;-0.4698222366203191;2.348148148148148;0.1129240462729612;392.0;1.0
-0.0404029551375097;0.518618601368493;-0.4245718776261856;0.3803191489361702;0.1418630581647099;204.0;1.0
-0.1993583376514658;0.8466375004402509;-0.2998899688258311;0.9333333333333332;0.1740929874424442;214.0;1.0
-0.2783811957673167;0.630369824691656;-0.1519516177246028;1.826086956521739;0.1127674765612465;205.0;1.0
-0.1135135745716492;0.2619083934281925;-0.3435681545261011;0.9290322580645162;0.1026623002279787;201.0;1.0
-0.152232441815766;0.3020046791948555;-0.3832681614383831;0.9668874172185432;0.0947495543223854;351.0;1.0
-0.020795464775117;0.7598411421895666;-0.3244611381404731;1.0066225165562914;0.158033282746679;211.0;1.0
-0.20289506411449;0.6547066903610148;-0.5473539265439118;0.9664429530201344;0.1627707476688129;201.0;1.0
-0.2199999999999999;0.7414319429539669;-0.6009977749569311;1.7857142857142858;0.1801381785414824;211.0;1.0
-0.2305610512665676;0.4307262572933844;-0.5331526958907918;0.9724137931034482;0.1411376722276689;193.0;1.0
-0.1787571260574721;0.6162412840694372;-0.5311778683876501;0.967741935483871;0.1531371586815877;196.0;1.0
-0.4961764981053244;0.3766142043802628;-0.3351759472372737;0.7596899224806202;0.1664045334092075;227.0;1.0
-0.2647473910392225;0.574750543858825;-0.6237645430755665;2.5323741007194243;0.1520202585475836;204.0;1.0
-0.2682331109675819;0.4349784132134768;-0.5491898685952836;0.9383561643835616;0.1197525037470205;372.0;1.0
-0.0583169018632432;0.2345502403950052;-0.2605467017066769;0.9121621621621622;0.0865458913119545;353.0;1.0
-0.1557155948471404;0.3280370295392059;-0.4403162503562408;0.3821989528795811;0.1183877511838969;193.0;1.0
-0.2736754173739029;0.3620285553300161;-0.5948999273440929;0.9652777777777778;0.1397024560976187;205.0;1.0
-0.2807853131754219;0.6286313895822387;-0.6553726573771735;0.9731543624161074;0.1430575397394422;372.0;1.0
-0.1292311367560889;0.8462270375562314;-0.1525666199546109;0.9531914893617022;0.1845528043952048;130.0;1.0
-0.2174658341873875;0.3183413813834743;-0.488093668118532;2.851851851851852;0.1173425942431284;199.0;1.0
-0.1603900137107382;0.7378791649675184;-0.0893606543444951;0.419811320754717;0.1635536061040443;198.0;1.0
-0.3188599635611531;0.4396074213398803;-0.6845252287366689;1.013793103448276;0.160677225230528;201.0;1.0
-0.1840724452419376;0.6032787764332058;-0.5680086123519283;1.0275862068965518;0.1354089471802847;331.0;1.0
-0.1878620043598077;0.5183554531855719;-0.5776902232861222;2.5494505494505493;0.1531167652823191;206.0;1.0
-0.2053074050962763;0.5889052093213814;-0.5184012308782563;0.9933333333333332;0.1542669621325839;205.0;1.0
-0.3586517526185931;0.552790552409468;-0.176962268759699;2.053763440860215;0.0999542030512949;219.0;1.0
-0.2488087596334839;0.4766769774375702;-0.6455736047923177;1.0142857142857142;0.142036413054147;200.0;1.0
-0.2196508366997011;0.6086666068338412;-0.6342541706400364;1.9467084639498435;0.1687947963949977;206.0;1.0
-0.1678121986850522;0.2528406212296793;-0.4541735995679324;1.0067567567567568;0.1155114847732731;198.0;1.0
-0.297100148523552;0.4107524732242529;-0.7115802367677284;0.9794520547945206;0.1546820370139583;206.0;1.0
-0.2453880289785952;0.5617455588537044;-0.6190461940395796;1.0070422535211268;0.1647838108391877;207.0;1.0
-0.2595246830311042;0.5933270167948854;-0.617205704466963;0.9863945578231292;0.1644924847975032;205.0;1.0
-0.2119153510880393;0.4338664802311447;-0.6492085515851654;0.9933333333333332;0.1171540960605302;403.0;1.0
-0.2179981978843169;0.5366988094890738;-0.5485784758277235;0.7899461400359067;0.1496808642879178;207.0;1.0
-0.2171920971025508;0.4654776834783052;-0.5178369131716315;0.987012987012987;0.1381569726491749;204.0;1.0
-0.330580862614043;1.088828291832266;-0.4019609082185828;1.0382775119617225;0.2266938134102228;259.0;1.0
-0.1831192992356145;0.4616739747016198;-0.4806633788976319;0.9738562091503268;0.1314540996861624;197.0;1.0
-0.1812129953248023;0.6861465277837486;-0.5880083462120249;0.9470198675496688;0.16424082125956;214.0;1.0
-0.0802905665679109;0.5570018684938285;-0.4294737586009792;1.034965034965035;0.1364520128217576;204.0;1.0
-0.2610623455063682;0.6279855493858796;-0.6238025273312904;1.0134228187919463;0.166771755787244;209.0;1.0
-0.2029788850681241;0.5561667834565994;-0.5664679575747138;2.8248175182481754;0.1530656495106904;207.0;1.0
-0.1580384297402045;0.6199714242434915;-0.4928549543662633;1.0;0.1549684221180643;208.0;1.0
-0.332635850675739;0.4104697749595944;-0.7069608997303793;1.9855072463768115;0.1455818014835713;205.0;1.0
-0.2556673268618428;0.4527547114534167;-0.2145699973314112;1.0354609929078014;0.1111605322792316;184.0;1.0
-0.190798306438219;0.6998342602315651;-0.4973626042591541;0.9797297297297296;0.162367814673931;204.0;1.0
-0.1080062354046768;1.7380497942351296;-0.304195266857254;0.9886363636363636;0.3845784937974218;365.0;1.0
-0.0630394217239747;0.788102338526568;-0.4312345708397873;1.0625;0.158542978380218;204.0;1.0
-0.2111732270714482;0.5354528877933953;-0.5715462336646044;0.9864864864864864;0.1505133138313058;203.0;1.0
-0.2411227748720469;0.4165034482025812;-0.4584064145612362;1.0342465753424657;0.102141396496703;559.0;1.0
-0.2002746363889616;0.7807185948721866;-0.1107923876573033;0.9881656804733728;0.186203593448124;113.0;1.0
-0.1983650577572689;0.4375266213961639;-0.5322558641577405;2.4782608695652173;0.1148402496112088;360.0;1.0
-0.2023608809348502;1.4103296171864583;-0.3039939798291884;0.9927536231884058;0.2235583184315141;179.0;1.0
-0.2777074005237459;0.4112432857088491;-0.6849031900282316;1.013793103448276;0.1324424013646042;300.0;1.0
-0.2800194137749048;0.2915001546246448;-0.5458536900963271;1.0335570469798658;0.1478942308667335;204.0;1.0
-0.210449776720885;0.7040846767573683;-0.4940538172173794;1.0129870129870129;0.1208509441830024;480.0;1.0
-0.2699918988147101;0.6781839821541905;-0.6706122022447255;1.0514705882352942;0.1789926720508276;204.0;1.0
-0.2404068664335039;1.797215187905703;-0.3724586288276162;1.2393162393162394;0.4061459562927641;151.0;1.0
-0.1626936811379226;0.5924244773176688;-0.4331952072145479;0.9210526315789472;0.1564105568094838;197.0;1.0
-0.1736620519345486;0.5884273070232906;0.5137592823008402;1.0;0.263446974526359;143.0;1.0
-0.5935817903481582;1.4590252456405677;-0.969876742684557;1.052325581395349;0.259960688827708;257.0;1.0
-0.1161091024517803;0.7177816196873492;-0.5319146941945062;1.0067567567567568;0.1595813096312376;208.0;1.0
-0.2074135892928986;0.3423735707640102;-0.5230212211222006;0.9261744966442952;0.1194159293715986;197.0;1.0
-0.2525459812471992;0.7017479922967151;-0.6417667656691518;1.0136054421768708;0.1711275159232006;198.0;1.0
-0.2592443391025913;0.5007683211540528;-0.593827614969092;1.0134228187919463;0.1651381894623326;207.0;1.0
-0.6127070875582386;0.8617665546345481;-0.5214882819965522;0.9814814814814816;0.1580041231655259;223.0;1.0
-0.300159979693882;0.4733763664479231;-0.5693433691893786;1.0;0.1520170675015839;208.0;1.0
-0.2749582921722419;0.7992549792821149;-0.15779322082079;1.0065359477124185;0.1523697130224133;152.0;1.0
-0.1082523823151351;0.6278694110084246;-0.372097745693267;0.9865771812080536;0.152645307404466;199.0;1.0
-0.1719992759222893;0.5785855087731538;-0.5017312646758522;0.9727891156462584;0.1416545778583142;199.0;1.0
-0.1484336055638037;0.6010066519450575;-0.4563994259128679;2.021582733812949;0.1526562050933872;217.0;1.0
0.065862984347459;1.0669247739929772;-0.3502791676310312;0.972027972027972;0.1710912552410002;198.0;1.0
-0.2860769718504118;0.4338931265015721;-0.5523037452854029;0.986842105263158;0.152338098285509;212.0;1.0
-0.1483807630578649;0.5317123994599782;-0.4819408358810382;0.3905013192612137;0.1189447172044696;329.0;1.0
-0.2096682816758656;0.4790741770552356;-0.5428651792345724;0.9801324503311258;0.1455851692695408;208.0;1.0
-0.2649907712225263;0.456906860818098;-0.5946074747783885;0.9536423841059604;0.1504156580579827;213.0;1.0
-0.5605630915210583;0.5291327336481506;-0.4088766291865321;2.082474226804124;0.1582282487731444;204.0;1.0
0.0019468936102775;0.759390131006589;-0.318716610737037;0.7463503649635036;0.1485553420149011;209.0;1.0
-0.5484914566208654;0.4524140833027524;-0.5593674384061083;0.9548387096774194;0.1861093450660173;226.0;1.0
-0.1127660635645859;0.7329808981882199;-0.461006510211768;0.4180790960451977;0.1618747360020319;208.0;1.0
-0.224274288760076;0.5720692786193725;-0.4960281079929503;0.9932885906040269;0.1430475614898047;197.0;1.0
-0.2532901000153743;1.5755208286648017;-0.3502295183003245;0.696;0.3422801900496408;134.0;1.0
-0.3043689740777116;0.6768684281285985;-0.5670324538220494;1.034965034965035;0.1889858598690474;203.0;1.0
-0.0768001433291781;0.7992911515000478;-0.4970646782151815;1.0202702702702702;0.1698469545591936;203.0;1.0
-0.1986287180397276;0.7283294056384418;-0.5709280387476335;1.0347222222222223;0.1653842862899608;200.0;1.0
-0.2642495352387342;0.59775331452242;-0.6224457500905284;1.0;0.1841724301960639;204.0;1.0
-0.4951804095953495;1.294595825008431;-0.4253161070232823;0.9925925925925926;0.276559751807952;148.0;1.0
-0.239509982377041;0.4725624848281173;-0.7300187592481733;0.3850129198966408;0.1011573118878617;693.0;1.0
-0.2194945959557776;0.5340498796219527;-0.5897572119311233;2.579710144927536;0.1588584192395191;199.0;1.0
-0.0934870151357909;0.9237389442431496;-0.2770389935215738;1.1221374045801529;0.1577210723511099;229.0;1.0
0.0015920677878191;0.9568715444183028;-0.4118977386354455;1.0202702702702702;0.1713031305029843;202.0;1.0
-0.530353679652709;0.2070243142976544;-0.8709179975684777;0.3719211822660098;0.1319999222258374;366.0;1.0
-0.3392996892240424;0.5135151393287415;-0.6640901357609408;0.9867549668874172;0.1595729913338027;206.0;1.0
-0.3809945508201675;0.7449011272934514;-0.4382739457240888;1.119205298013245;0.1890961806074532;216.0;1.0
-0.2369615367921484;0.5260866253368393;-0.6743836105797705;0.9791666666666666;0.1595024028406976;203.0;1.0
-0.3523672785560849;1.0103950453656123;-0.3026864548351642;0.6180904522613065;0.1857975235692864;176.0;1.0
-0.2688036801809727;0.3171227028722906;-0.3143904111305873;1.5040650406504066;0.1063816084375677;165.0;1.0
-0.2095313001030043;1.267416573523634;-0.176557539713775;0.9047619047619048;0.2876552732729452;118.0;1.0
-0.5940471561735051;1.7645391197042992;-0.6323569631669397;1.1324503311258278;0.3654058358435134;239.0;1.0
-0.4898310926657558;0.6032034524958804;-0.5336404245834241;0.8716814159292036;0.2016546092786113;148.0;1.0
-0.2474180469908784;0.921147920259222;-0.1313422153956571;1.0125;0.1503366535910853;203.0;1.0
-0.2652366760679711;0.6868103463471411;-0.6401579229480061;2.688405797101449;0.175940799730515;203.0;1.0
-0.1582592057576703;1.502549056277897;-0.0685271060949127;1.0434782608695652;0.2566195482968094;151.0;1.0
-0.3122199968330488;0.3002434248526492;-0.5616939185961449;2.3422222222222224;0.1306288422142869;197.0;1.0
-0.2880867794112687;0.2506427109673162;-0.4559386033654528;0.935483870967742;0.1391007494893074;200.0;1.0
-0.101380598615678;0.5116254937371958;-0.4134513193225818;1.6983050847457628;0.0793583124165551;713.0;1.0
-0.2834672090059376;0.9518819018321883;-0.4401018243683277;1.4210526315789471;0.1918946612322908;180.0;1.0
-0.2650622269997749;0.3632569960752033;-0.5860893960988274;0.3923076923076923;0.1125483284387694;413.0;1.0
-0.2315182440386473;0.4306377251004352;-0.5054046827078015;2.273469387755102;0.1151526469204802;366.0;1.0
-0.0033516285840705;0.8406673033471717;-0.0829627968738525;1.9272727272727272;0.1169923768439313;189.0;1.0
-0.1704120282675185;0.5535331346019786;-0.5770610513570759;1.0136986301369864;0.1510038158980595;206.0;1.0
-0.3254286515888352;1.5541177602395448;-0.2474460657700998;0.51953125;0.3516427482016086;124.0;1.0
-0.165515596834134;1.0429141690277328;0.0845253750608476;0.9873417721518988;0.1479251479643533;177.0;1.0
-0.3552328625304632;0.0871588196343405;-0.3248277938004058;2.145833333333333;0.106884596381616;279.0;1.0
-0.2559199677565715;0.4844064528424959;-0.5287074300388452;0.9645390070921984;0.1608650508228088;208.0;1.0
-0.1776021994322778;0.7050970713079421;-0.547376066482818;3.721973094170404;0.1569245012712783;202.0;1.0
-0.1205149561537919;0.5339405280233369;-0.4278963645401907;2.7777777777777777;0.1408231392125985;205.0;1.0
-0.2273803068166204;0.4248586827686476;-0.5184954717283046;0.3403263403263403;0.121796965906343;380.0;1.0
-0.145;0.8686639011274949;-0.5651147431121383;0.9133333333333332;0.1842950377745857;200.0;1.0
-0.0973469526742027;0.7550307086910598;-0.3131991954650731;0.2738970588235294;0.159806036645194;202.0;1.0
-0.2829217103849502;0.562227696549439;-0.6436889529324292;0.9861111111111112;0.1642443445964384;206.0;1.0
-0.1892802417035741;0.5760164235743784;-0.5827423820423314;0.9342105263157896;0.1555110569150617;208.0;1.0
-0.0331296707739302;0.9148513944732772;-0.3890502597305943;0.9866666666666668;0.1691625190348324;205.0;1.0
-0.0054837163680951;0.6874582814912094;-0.3407642210236511;0.993103448275862;0.1451491212205451;198.0;1.0
-0.2931373414756482;0.521849082888892;-0.6730803299536611;2.742424242424242;0.1213657186798408;368.0;1.0
-0.0796569971266643;0.8618637808954621;-0.4286353678813477;1.0134228187919463;0.1677910934870326;206.0;1.0
-0.156949736525814;0.5516240450366477;-0.5123988258788811;0.9517241379310344;0.1046422046656031;466.0;1.0
-0.3002266110243174;0.2854396605382301;-0.6047583937249186;0.3785166240409207;0.1271264552643566;206.0;1.0
-0.2577454539409052;0.6447325021763949;-0.5968919764763698;2.4895104895104896;0.1732257577436136;205.0;1.0
-0.310085556315483;1.4741758459140173;-0.4218953106176895;1.2352941176470589;0.2374818084334513;270.0;1.0
-0.1375954091786088;0.5302983770598733;-0.4956231665928159;1.0337837837837838;0.1122294916477286;455.0;1.0
-0.001627512908356;0.8207673777392506;-0.2861407048106281;1.006896551724138;0.1572988124511078;205.0;1.0
0.0256030150753769;0.052261048047803;0.0016601789183622;1.146341463414634;0.0893891653019835;161.0;1.0
-0.1732536043950346;0.7392136217847451;-0.5402931429963354;2.4482758620689653;0.1861923231120549;202.0;1.0
-0.0161802939697417;0.7641179202704054;-0.344830123294959;1.7285714285714286;0.1556061457308638;199.0;1.0
-0.3128707907557499;0.449299358238346;-0.6543779991282366;2.6423357664233578;0.1419580099858519;194.0;1.0
-0.2704963986143218;0.5382597681622676;-0.588291571743651;1.0277777777777777;0.1539646720186825;212.0;1.0
-0.1616044757546582;0.6267652916454537;-0.4831119353757063;1.0416666666666667;0.1551075904652742;203.0;1.0
-0.1806106395764827;0.3181259639711398;-0.4629875702276432;0.9662162162162162;0.0839687384903078;589.0;1.0
-0.0322450314526466;0.6341863631516588;-0.3090736459604606;0.9419354838709676;0.1398044897321415;202.0;1.0
0.0453377197640024;0.8321896720070306;-0.3168494918709563;0.9724137931034482;0.1533848616160593;205.0;1.0
-0.0740437212137683;1.272184781040356;-0.0285123133881902;2.4574468085106385;0.2092993821073158;142.0;1.0
-0.316609302984801;0.602774164539828;-0.683543966122666;0.388268156424581;0.1643521891265208;209.0;1.0
-0.1649999999999999;0.658743411886636;-0.5350498928556883;0.3930348258706467;0.1555524044274752;193.0;1.0
-0.0563044974868923;1.2150026174109678;-0.2468498970979625;0.6460674157303371;0.2014285656489679;196.0;1.0
-0.0229876222024958;0.8351563990347696;0.2088530779153355;0.8235294117647058;0.1149822199238262;173.0;1.0
-0.1529304792472289;0.5096199160735984;-0.4145726669252454;0.8606060606060606;0.1457238352042202;195.0;1.0
-0.2891317025546552;0.4429585449225644;-0.6311412837758634;2.9558823529411766;0.1472945388692197;203.0;1.0
-0.1716383481193905;0.5862907237599433;-0.5568107746035665;0.3945205479452054;0.1559927145108168;198.0;1.0
-0.2637760411621636;0.9126717269750096;-0.5211193788031234;1.2884615384615383;0.1889557990939441;200.0;1.0
-0.2239041515917535;1.220396539495601;-0.366052126415777;0.9651162790697676;0.2909066526328359;117.0;1.0
-0.2818569203703763;0.5023005668622618;-0.5131502287003941;1.0133333333333334;0.1484937619545566;206.0;1.0
-0.0747121253611879;0.7988025399251572;-0.4400570756717486;0.8141592920353983;0.1675121521297976;202.0;1.0
-0.247744500712523;1.3986337017520751;-0.3121531414573845;0.4337899543378995;0.2964270584154612;132.0;1.0
-0.0178155590573442;0.6782790914127793;-0.3271737843411937;0.9863945578231292;0.1507927987019692;204.0;1.0
-0.35;0.6519812744582021;-0.7288939135059787;0.3896457765667575;0.1834693892232025;200.0;1.0
-0.2004486249154748;0.5788291573895633;-0.5962831174184281;0.9797297297297296;0.1470858088874156;202.0;1.0
-0.1852996871514295;1.2974049905542482;-0.1027346786375068;1.2857142857142858;0.2040399158658541;207.0;1.0
-0.210112140034464;0.5868563821099733;-0.5496321075793146;0.4769736842105263;0.1619297513270702;200.0;1.0
-0.2435007031414005;0.5753034773127208;-0.6021176654449215;1.0201342281879195;0.1564327516302306;207.0;1.0
-0.1561666861883106;0.721740606172538;-0.4726298480530376;1.0;0.1612365906089132;211.0;1.0
-0.242240893677428;0.6084551659132936;-0.659825510159294;0.2689530685920577;0.1599692165025076;208.0;1.0
-0.2143349658949224;0.2223435883360343;-0.5730167613377756;0.9867549668874172;0.146579943101156;206.0;1.0
-0.1023723946070182;0.7608909918541916;-0.4551968866628229;0.9865771812080536;0.1581232438127962;210.0;1.0
0.0871083522681652;0.9172812216233476;-0.268984954013223;0.9452054794520548;0.1546906474153691;201.0;1.0
-0.0173255051125286;0.8887996850445457;-0.3523182217559201;1.0;0.1586585174882047;204.0;1.0
-0.151905788889344;0.5013096737933931;-0.4699007307703703;1.0132450331125828;0.1096223839663236;371.0;1.0
-0.3072353822804368;0.2622048652091064;-0.5631751635421601;1.020979020979021;0.1221678377156335;198.0;1.0
-0.2910085234722493;0.3822143361211376;-0.5781649683878962;0.92;0.11293432310404;387.0;1.0
0.0100020739317077;0.6896464363345998;-0.314150531659655;1.0277777777777777;0.1542236482797039;203.0;1.0
-0.2553138043872424;0.3632023813332321;-0.5526190092943919;0.9929577464788732;0.1356464177887061;193.0;1.0
-0.0010554974333293;0.7446898390331529;-0.3563754225875661;0.948051948051948;0.1512610036098308;211.0;1.0
-0.2736294413100521;0.473844731395941;-0.5894322283367854;0.9473684210526316;0.1489780463527656;204.0;1.0
-0.1194987085430433;0.759629989394705;-0.4882276226010159;0.3962765957446808;0.1669789475687689;194.0;1.0
-0.4231943429774137;0.3815366100997804;-0.8551252045455587;0.3846153846153846;0.130385234095077;375.0;1.0
-0.210379453962881;0.6881028686474774;-0.5472764745458153;1.0068027210884354;0.1625507022369711;200.0;1.0
-0.4692159410497679;1.8718220919209352;-0.7794104176461081;0.9852941176470588;0.4304519890983184;212.0;1.0
-0.158823020550118;0.8308252269856843;-0.5743963759718597;1.0448430493273542;0.209205193718676;266.0;1.0
-0.1995877410792925;0.4462763755220544;-0.5555255681556076;0.3984168865435356;0.1511347722850224;210.0;1.0
-0.1782321581571761;1.3155917907112071;-0.1221963427238345;1.0;0.26296755702892;141.0;1.0
-0.1769648508944659;0.6383063474029647;-0.5556950241870167;2.554655870445344;0.1577355561042208;197.0;1.0
-0.0498136272329164;0.8960585517982489;-0.3930614743377219;1.0335570469798658;0.1718595968161434;207.0;1.0
-0.0631310272798286;0.6785272193692435;-0.4610089828973003;0.2310077519379845;0.1478364091618541;209.0;1.0
-0.4702328681656526;0.2761294230431738;-0.3473676077324276;1.1666666666666667;0.0849140190912992;223.0;1.0
-0.1442714926710701;0.7680289458862974;-0.4165567965429639;1.006896551724138;0.1052489554237144;724.0;1.0
-0.1743653793640668;0.3744560311353756;-0.5509053653501005;2.492537313432836;0.1223125574921363;198.0;1.0
-0.2876976938794294;0.4288468154857541;-0.6104926227880515;2.5407407407407407;0.120609993275405;373.0;1.0
-0.2415143688540063;0.3541356861430443;-0.2703863958979738;0.810126582278481;0.1265832629365928;108.0;1.0
-0.1609199674109528;0.4267828780050877;-0.4583449521616733;0.375;0.1299726747425593;203.0;1.0
-0.2517074307070082;0.4722045031907402;-0.513381800824106;1.0472972972972974;0.1507222554941591;212.0;1.0
-0.2159990092131029;0.4979596858738228;-0.3739400319277063;1.013793103448276;0.1154380577911809;206.0;1.0
-0.1518635400863558;0.4815986494443869;-0.4850610957899459;1.0431654676258992;0.1303345994935015;199.0;1.0
-0.2483579096609778;0.237940252824683;-0.5622306322130499;0.9726027397260274;0.130893389928221;209.0;1.0
-0.291962377511371;0.3382972852665273;-0.2670480823773526;1.265625;0.1024440489945584;183.0;1.0
-0.2780713227153392;0.341413831691462;-0.5788468959187967;2.345864661654135;0.1409270736506967;208.0;1.0
-0.4159424848821823;0.9637422884725828;-0.4232685885815807;0.9877300613496932;0.1540903780845802;203.0;1.0
-0.0718553347417198;0.5288672037773291;-0.4088765461091103;1.7821428571428573;0.1752813420849567;206.0;1.0
-0.2191002898645286;0.7596381095784331;-0.0056150299223974;1.0182926829268293;0.1236433795124254;215.0;1.0
-0.2835269778613037;0.4663738781486177;-0.6358803790881866;0.9183673469387756;0.1521415108729572;207.0;1.0
-0.0527724448343145;0.6158191378064286;-0.3664774620218294;0.9733333333333334;0.1384628614791872;209.0;1.0
-0.2660284649318609;0.3810853449483897;-0.6032559102293517;1.0;0.1322583266273224;200.0;1.0
-0.1557336674929742;0.5551002885582624;-0.4475963921862826;0.9379310344827586;0.1486775032066245;208.0;1.0
-0.025;0.5288115565574638;-0.3961882911348107;0.9724137931034482;0.1327937168329411;200.0;1.0
-0.0810126161597943;0.7601244304830521;-0.452348314954049;1.0205479452054795;0.1616282321682757;201.0;1.0
-0.141998669613789;0.6295798910721744;-0.4310165101310239;0.3902439024390244;0.1548565492889014;196.0;1.0
-0.2264276453563147;0.5787180676490051;-0.6256720119427681;1.0135135135135136;0.1545509828464028;206.0;1.0
-0.30892817711119;0.7080080395794044;-0.6205748792652733;1.9444444444444444;0.1787698259112193;214.0;1.0
-0.2444896896845323;0.5123274726599403;-0.5786485746826919;0.3930635838150289;0.1513114818645983;195.0;1.0
-0.1914656535469694;1.0381368039105132;-0.6701852443397811;1.3414634146341464;0.3002869848327258;120.0;1.0
-0.1537441556167375;0.8298522630949036;-0.4819408358810382;0.9727891156462584;0.1326075600764298;398.0;1.0
-0.0203470565273615;0.4234428757420166;-0.3251227104279274;1.0482758620689656;0.1195594276393125;213.0;1.0
-0.2906298100349586;0.6925470725211194;-0.0656576524322826;0.9777777777777776;0.0885736913402171;225.0;1.0
-0.1457107184251654;0.6094364733346647;-0.4763845525640141;2.617021276595745;0.1572554328898434;204.0;1.0
-0.0286282638994441;0.6013718717790336;-0.3729420237424525;0.9931506849315068;0.1092700088938965;392.0;1.0
-0.0429804750801249;0.705531346038936;-0.4831859564483479;0.360381861575179;0.1735348336212946;177.0;1.0
-0.2421180333074343;0.3679521851530635;-0.5250403327452993;0.2427184466019417;0.1063038950572489;349.0;1.0
-0.0895353550792842;0.6127892183765558;-0.4317837909468586;0.9256756756756755;0.1443347515899823;208.0;1.0
-0.3248373976772439;0.6327738048888392;-0.248968281081579;2.336842105263158;0.1276080724901062;169.0;1.0
-0.2989881741823364;0.9636154822917656;-0.2980182596449667;0.9508928571428572;0.2630562496281475;136.0;1.0
-0.3989672071347848;1.0203811324097072;-0.4470806529242579;1.4766355140186915;0.168477904060947;217.0;1.0
-0.2693352334251699;0.6601624393696666;-0.6533319048362342;1.0466666666666666;0.1704359791000782;211.0;1.0
-0.2138703077541733;0.9407440848133656;-0.3694256345041807;1.0486111111111112;0.2038450632007739;195.0;1.0
-0.2061216181274553;0.6450956491883522;-0.0600028619800798;1.0;0.0927532166753962;230.0;1.0
-0.208621212725915;0.5502476184973224;-0.5701078902375898;1.027972027972028;0.1577786842592034;206.0;1.0
-0.1388478731514179;0.349312220484559;-0.4051712880388629;0.9395973154362416;0.0878116076816886;536.0;1.0
-0.2677650825753364;1.7918495464910822;-0.350468220290592;1.817073170731708;0.3681299602116379;262.0;1.0
-0.2975602170457081;1.0686138634772815;-0.3370141552543307;1.4785714285714286;0.2028240929242435;242.0;1.0
-0.3498406445665795;0.4936948749836594;-0.627477866916252;2.6739130434782608;0.1550186825416081;200.0;1.0
-0.7350419907367102;1.1983639623110771;-0.8671685028316879;1.296;0.4278409085700693;163.0;1.0
-0.1924631657754028;0.6742092778477311;-0.5869269711456842;3.364372469635628;0.1680960220785776;203.0;1.0
-0.2381624755923297;0.4091312622593297;-0.5078256472711042;1.021868787276342;0.1293522009097039;202.0;1.0
-0.2137416078543943;0.5432902057712545;-0.6357094112507922;2.7253521126760565;0.1531731310740895;204.0;1.0
-0.27;0.5862179219132653;-0.591512775849886;1.0201342281879195;0.1544995456735499;200.0;1.0
-0.5969325511474597;0.8418384925264478;-0.4297839801037434;0.9748427672955976;0.1485076104297957;219.0;1.0
-0.1192099243722911;0.4656298478860934;-0.4529003685843357;0.4311377245508982;0.1325019509787393;200.0;1.0
-0.1275920190271343;0.4282277167417656;-0.3470077536674908;0.912751677852349;0.1285124795699992;205.0;1.0
-0.301605391757989;0.473995159400846;-0.6743723396684763;0.9805194805194806;0.161837604239218;209.0;1.0
-0.1748095923650973;0.5139633673653028;-0.5670571272585173;0.993103448275862;0.1269321013073699;380.0;1.0
-0.2859736923134461;0.5344410337283813;-0.3807625139801166;1.8;0.1267257311460702;187.0;1.0
-0.3052968996197777;0.278605189033588;-0.5702406362081338;1.006896551724138;0.1427886377775155;202.0;1.0
-0.1889879295455676;0.6836005383938156;-0.511219508723022;1.006993006993007;0.168702699757644;205.0;1.0
0.2244471748822558;0.328383179456041;0.0290459548281494;2.7518248175182483;0.2789882917498809;208.0;1.0
-0.1110667231886579;0.3456529982448919;-0.4129154322305726;1.065217391304348;0.1254431235754173;203.0;1.0
-0.2445468908076113;0.6049673268243998;-0.6173683675313187;0.9866666666666668;0.1627332134903941;210.0;1.0
-0.1336775414716121;0.3421314056358355;-0.4948284321845893;0.2207001522070015;0.1180928227337211;204.0;1.0
-0.1759005359633484;0.5995416735114292;-0.5319720854076164;0.9161290322580644;0.1578902840066527;211.0;1.0
-0.2109920847428768;0.3911565078684539;-0.5309297855895119;2.762962962962963;0.1435566642186563;201.0;1.0
-0.2503262366370096;0.543371771404504;-0.6001030443606814;0.9867549668874172;0.156055462938733;204.0;1.0
-0.4675330437870298;0.7094999706995752;-0.4125569615288253;1.1805555555555556;0.2408276743441978;108.0;1.0
-0.1125675623284202;0.7388649750353651;-0.4817024543700419;2.02247191011236;0.1722610869839914;200.0;1.0
-0.2167489808008661;0.7693168652781173;-0.0486489824832895;0.8662790697674418;0.1099354042065981;207.0;1.0
-0.286355592245446;0.4297009391275976;-0.620697193163798;1.0205479452054795;0.130730985720191;358.0;1.0
-0.2446967882020719;0.4330916452578174;-0.5323883715426792;2.7111111111111112;0.1395266576031213;195.0;1.0
-0.038986380445762;0.5183391620325173;-0.3283128228824808;0.9452054794520548;0.1123134362484614;360.0;1.0
-0.1858403372515444;0.6522327483093162;-0.5268611015618618;0.9664429530201344;0.1594046653768482;201.0;1.0
-0.5807429963243383;0.8930841117645613;-0.5273150526567593;0.8468468468468469;0.2368695756607767;124.0;1.0
-0.195263499694532;0.335682785575326;-0.4342487169934219;1.0277777777777777;0.0919965046178458;381.0;1.0
-0.1954042113807293;0.6954414382731968;-0.6054615958429295;1.013986013986014;0.1669841765703175;205.0;1.0
-0.2157954202446888;0.5478976824300759;-0.586590618950868;0.9452054794520548;0.1520789199488028;200.0;1.0
-0.231146109544849;0.379904178741876;-0.5111151638684062;1.0337837837837838;0.1361658104250079;208.0;1.0
-0.8907247138988904;1.2351927635705884;-1.882766854742708;1.0185185185185186;0.587919210570487;104.0;1.0
-0.0279880310458149;0.8430231673058093;-0.0268259351033243;0.6619718309859155;0.1893844204019596;225.0;1.0
-0.0529317919188704;0.4657035757549355;-0.3203773425272538;1.8;0.0918532383221667;542.0;1.0
-0.1480418319989881;0.4559967793558829;-0.4197372510594334;0.4349112426035503;0.110859907647241;367.0;1.0
-0.4442710184915733;0.6390700271054361;-0.0898989212370325;2.4148936170212765;0.1288233960233714;163.0;1.0
-0.2988227663095722;1.6363658115462345;-0.3680272937413362;2.087378640776699;0.3077146225609733;209.0;1.0
-0.1911898488624149;0.5916916632025155;-0.5549412137336751;0.9527027027027029;0.1555626000476631;205.0;1.0
-0.6919389051423591;0.6759269649370406;-0.4630551560386602;1.196078431372549;0.2112161786828761;219.0;1.0
-0.2291752045393097;0.5640213815850282;-0.6011675366483261;2.2058823529411766;0.161428452265899;208.0;1.0
-0.2023367198067268;0.4362914313753118;-0.4824537784976203;0.9047619047619048;0.1366580391978935;193.0;1.0
-0.1348296745128559;0.7171603050005603;-0.4966860792351835;1.4722222222222223;0.1666760006679418;201.0;1.0
-0.1166025401452109;0.6291094090568305;-0.3972071280464785;1.020408163265306;0.1184917909451533;368.0;1.0
-0.5097715231534068;1.0057791596373815;-0.414925327321259;1.0;0.1641384730360175;229.0;1.0
-0.1844000763753219;0.9235920458287884;-0.1172307539757958;0.984375;0.1631284185444957;132.0;1.0
-0.2330869397206022;0.361279941708034;-0.5655449929932179;2.143884892086331;0.1090184845176966;382.0;1.0
-0.2239785911120371;0.7310051011760601;-0.6454652820529604;1.0206896551724138;0.1759741678267618;211.0;1.0
-0.0638949250407809;0.5232678765835005;-0.4305819193043638;1.0359712230215827;0.1265928168442504;352.0;1.0
-0.15856868603817;0.5760034481247384;-0.4477651724703811;0.9477124183006536;0.1445810597511999;198.0;1.0
-0.1524756238385894;0.5471299327229564;-0.4301576293253617;0.9932885906040269;0.1102786937932277;400.0;1.0
-0.0892762470511101;0.6820502104409376;-0.3750572250567839;2.4596774193548385;0.1471085769982648;211.0;1.0
-0.340477787151366;0.3512377306858398;-0.2851493340156722;0.9701492537313432;0.0998294079427999;149.0;1.0
-0.215;0.5013844243980944;-0.5840505978137446;0.9864864864864864;0.1477516401701636;210.0;1.0
-0.3563678720483205;0.6832942999246469;-0.835471970791162;2.738805970149253;0.1910987594780773;204.0;1.0
-0.2845878315311869;0.6395047312029836;-0.5820387417854094;0.9867549668874172;0.17114945224366;216.0;1.0
-0.0976590745792925;0.2488015919159505;-0.357647529179584;2.673758865248227;0.0912257924918133;324.0;1.0
-0.2192044138797613;0.6628930836983034;-0.6050226296317527;0.8974358974358975;0.1651319955582857;213.0;1.0
-0.0749383070161538;0.3799330429019255;-0.4012861738009506;1.0205479452054795;0.1236655933165318;206.0;1.0
-0.3080824370057191;0.6677486849628631;-0.617939031649319;0.9536423841059604;0.1710222027848608;204.0;1.0
-0.205253572487413;0.7168647577137651;-0.0982507257155566;1.6216216216216215;0.1335096428331745;133.0;1.0
-0.2027344706671447;1.2251175763495934;-0.1549534089988133;1.0223463687150838;0.2181218660986835;209.0;1.0
-0.1677834654015867;0.7552721649563592;-0.1571892692836743;1.1282051282051282;0.1099658878854741;222.0;1.0
-0.2569415210922361;0.4702815701113132;-0.5816524893598913;0.9554140127388536;0.1519722554205082;210.0;1.0
-0.0037084836692364;0.3906821562365185;-0.3539733112028527;1.0347222222222223;0.1171700333585332;204.0;1.0
0.2292365754435001;1.1870475027884808;-0.1434854642255536;1.8982300884955752;0.1660322373472004;204.0;1.0
-0.1204594492714331;0.7752070717308914;-0.4954290502055727;0.906040268456376;0.1131788551949135;537.0;1.0
-0.0438461432159699;0.7759175188667462;-0.0361000483167267;0.6376811594202898;0.0940538650807933;229.0;1.0
-0.2101287267577581;0.5876421819873557;-0.6116615944272286;0.986206896551724;0.1554822853879281;202.0;1.0
-0.305696663391969;0.8895324320094607;-0.202637299025723;0.9938650306748468;0.1842588894157181;158.0;1.0
-0.1632860907522285;0.755425575167041;-0.5266151440455829;1.0443037974683544;0.1683743856334426;195.0;1.0
0.0376067429209632;0.9334978810984236;-0.3182113083481264;0.9930555555555556;0.1664875376871381;204.0;1.0
-0.2408259748891063;0.58338455008739;-0.5698745048930445;0.9605263157894736;0.1595477348249172;207.0;1.0
-0.0797969495007251;0.7235826366346167;-0.4139680668485248;1.7588652482269505;0.1529901637622931;211.0;1.0
-0.1148654975832197;0.7768230354848986;0.0538225576431215;2.095744680851064;0.1109966814527068;202.0;1.0
-0.2637497206587644;0.4557413949024717;-0.6367771880685749;0.98;0.1468939613911982;203.0;1.0
-0.3275894956867523;1.4763266055570292;-0.2738127587368314;1.1444444444444444;0.3379358341900352;138.0;1.0
-0.2726873748739991;0.5560657120711762;-0.2779193335091635;1.0737704918032789;0.1136687781838968;216.0;1.0
-0.2231576578947968;0.7011232003462052;-0.6121575498943133;0.958904109589041;0.1760953036891995;200.0;1.0
-0.0273050394488718;0.5381577733272918;-0.3318531454486094;1.0335570469798658;0.1264774644254009;203.0;1.0
-0.1790925492374376;0.4406004781672149;-0.4727430621736837;1.6214285714285714;0.1278682954602612;206.0;1.0
-0.1860649772506118;0.7405260986278546;-0.55;1.0272108843537415;0.167521023782114;200.0;1.0
-0.2301361302775128;0.7353844333627254;-0.1027305930467581;1.2946428571428572;0.1718678186447917;239.0;1.0
-0.1299478729719785;0.8841290102798003;-0.4218194942046049;0.952054794520548;0.1948702601719051;188.0;1.0
-0.3522757967804774;0.4879736696583306;-0.6405396994469607;4.912133891213389;0.152570230110861;204.0;1.0
-0.234385452118714;0.5934583687568175;-0.5819269005919585;1.013793103448276;0.1665448766564206;200.0;1.0
0.0615317468961666;0.6503207456966175;-0.2352636834529256;0.993103448275862;0.0867700515081476;707.0;1.0
-0.2391574220369416;0.6240643687567952;-0.5554016593036275;1.0134228187919463;0.1692286232500716;207.0;1.0
-0.251506301414293;0.4799915392326058;-0.61504794792309;1.0;0.1527822875556224;204.0;1.0
-0.0148068044167282;0.4771283689422999;-0.2857326203335785;0.3673469387755102;0.101081907979585;367.0;1.0
-0.3162889251509697;0.9932327085931272;-0.3159130697973176;0.9464285714285714;0.2117696349638116;146.0;1.0
-0.2652427521659525;0.4530510309974412;-0.6071890529656876;0.918918918918919;0.152339284137305;203.0;1.0
-0.3518413767010951;1.4125381204555016;-0.3096119574529841;0.9629629629629628;0.2753675516953585;156.0;1.0
-0.3651871649893434;0.9938501794073792;-0.4357124989440211;1.0047846889952152;0.2017579645799003;232.0;1.0
-0.2166660788428057;0.7689637536666851;-0.5810927994707278;0.5114320096269555;0.1768375498788537;206.0;1.0
0.0005965533028912;0.7430071608013457;-0.334892813340873;0.9805194805194806;0.1489855568443529;205.0;1.0
0.0871027304498567;0.6174407984546149;-0.2862230456176882;0.9652777777777778;0.1145854176271718;362.0;1.0
-0.2027759665595901;0.6166598382606104;-0.5292931071497503;1.3610503282275712;0.1580487614026563;202.0;1.0
-0.2196983071745653;0.6486150057516745;-0.0713513821781401;1.0424242424242425;0.1226249358626821;128.0;1.0
-0.2076118568843493;0.5121775907819631;-0.1032935884118786;1.093167701863354;0.0993481470105995;209.0;1.0
-0.2313520675285123;0.4118616127568545;-0.6274388609668782;2.4296296296296296;0.1498019070198426;195.0;1.0
-0.0593139106897843;0.6375270337186796;-0.3802324217479046;1.7932203389830508;0.1486817064066048;208.0;1.0
-0.18789350833573;0.5447577369034798;-0.5360366486369572;1.0068493150684932;0.1510285475620119;206.0;1.0
-0.3544126449968642;0.7857351178579475;0.0053778813460843;1.011173184357542;0.182831536280399;127.0;1.0
-0.0202326986721986;1.1805825924772972;0.032876087641784;1.8225806451612905;0.1847054446763445;166.0;1.0
-0.403324919342955;0.2923198175454011;-0.3543963963588653;0.6216216216216216;0.1419123321320211;212.0;1.0
-0.2540099976774646;0.373115778972647;-0.4937287919476401;2.7372262773722627;0.1164473759768278;376.0;1.0
0.0652738957935217;1.6990014494497885;0.0929436901519812;1.0341880341880345;0.2483772838033845;168.0;1.0
-0.1142184337756676;0.1070189691948617;-0.1097957722295038;1.06993006993007;0.2289032311492046;202.0;1.0
-0.0890968756401911;0.7410908178696664;-0.477058948688738;0.8940397350993378;0.16001366326115;208.0;1.0
-0.0331563547554982;0.7137313705324586;-0.5029027270234219;1.0067114093959733;0.193410395645444;205.0;1.0
-0.1988544158438591;2.7011529922683315;-0.6006145087069783;0.4841628959276018;0.5406706225603387;151.0;1.0
-0.2016843989798118;0.5892624705422332;-0.5614749481459177;0.9863013698630136;0.157107318639148;200.0;1.0
-0.2665281894764918;0.7944845705696648;-0.1613840890999887;0.4394618834080717;0.1204586933469208;184.0;1.0
-0.158286807203837;0.3523485313449678;-0.4279705329821046;1.0068493150684932;0.0989391978994508;326.0;1.0
-0.162865054967513;0.7570247940437477;-0.5116385466973691;0.8513513513513513;0.1656099978877922;204.0;1.0
-0.1165879510259015;0.4664580822730243;-0.430407039406313;1.0;0.128908048932665;195.0;1.0
-0.2044299318230429;0.5903030532279101;-0.5740737699496175;1.0342465753424657;0.1556144407210001;211.0;1.0
-0.1163103540636545;0.4150594563769541;-0.4017178059324592;0.913907284768212;0.1330242642968389;198.0;1.0
-0.4611049055352172;1.038459811192638;-0.4634934557560128;1.007462686567164;0.261512745934322;141.0;1.0
-0.2481833201134164;1.0017217704551955;-0.0269253710441847;0.9759036144578314;0.1617906611572147;163.0;1.0
-0.1159126592139366;0.4601085930521692;-0.4516686010700989;1.006896551724138;0.1281021072576267;205.0;1.0
-0.0687243892170658;0.7304564391572418;-0.4611234145101701;1.020408163265306;0.1615578177643272;207.0;1.0
-0.1834375995191819;0.6131249948081028;-0.4957499356154224;1.006896551724138;0.1652622574810864;200.0;1.0
-0.2338387330172481;0.4097838162456811;-0.6028145490531104;1.0070422535211268;0.1426897864383197;199.0;1.0
-0.2634792456315027;0.4498648312987512;-0.5617906745054333;0.3688118811881188;0.1405193823674596;210.0;1.0
-0.2556459018454324;0.5254944877044085;-0.6004736859054509;0.9256756756756755;0.1500097276406703;195.0;1.0
-0.1354453863063911;1.0194016919233395;-0.1651025735220757;1.062240663900415;0.1879242527282873;141.0;1.0
-0.2503644625393317;1.145929478052363;-0.2947324763614264;1.1324200913242009;0.2223284065247179;256.0;1.0
-0.4156972690046416;0.8760147285685533;-0.5367284620469401;1.0377358490566038;0.1542680990712344;208.0;1.0
-0.1783290715925118;0.7446340867456444;-0.4972798637235306;1.0066225165562914;0.1668778685183162;205.0;1.0
0.0773279232519168;0.9034230564580444;-0.2856997551889705;1.0;0.156472788963439;202.0;1.0
-0.2103529856052584;0.245993607749316;-0.450353950592023;1.1327433628318584;0.0949602797929095;123.0;1.0
-0.1902649645342262;0.4914368204175268;-0.4610727370824002;0.958904109589041;0.099408210312206;560.0;1.0
-0.1913442776379355;0.3662542157551747;-0.1163205944458277;1.1722222222222225;0.1222306578644316;167.0;1.0
-0.2431032424929024;0.3608860571949837;-0.0563095280953474;1.0235294117647058;0.156549677189202;200.0;1.0
-0.131175076959934;0.6543459751914253;-0.5580558582266325;0.3879093198992443;0.1729837669551803;204.0;1.0
-0.2126844250857327;0.3344876923585733;-0.4708197203216097;0.3725961538461538;0.1076886043944035;366.0;1.0
-0.1972298753355643;1.4209142353815956;-0.1290907568906075;0.8363636363636363;0.2438351402588391;159.0;1.0
-0.2554532411831134;0.3877956028474164;-0.5550415123823995;0.9931972789115646;0.1399888619017498;195.0;1.0
-0.2192387936121148;0.4130155664630165;0.1502503729802517;0.9901477832512317;0.19484023889665;179.0;1.0
-0.0660508188928403;0.7544593284030674;-0.364191474123631;1.0;0.1559670870206267;207.0;1.0
-0.4101686766806041;0.2963384589795269;-0.568959258047962;0.959731543624161;0.1224288895475024;203.0;1.0
-0.1065210481293434;0.4223538068010114;-0.3992804112669689;1.0134228187919463;0.126067036939537;203.0;1.0
-0.1733283033738648;0.4769083499397183;-0.4577642346881899;0.9731543624161074;0.1004619023164356;396.0;1.0
0.003257712111881;0.4911469441410456;-0.285960315463712;2.7794117647058822;0.1360433270544605;196.0;1.0
-0.280986306789755;1.3609252606097797;-0.2309916002665563;1.1531531531531531;0.2425326728613323;167.0;1.0
-0.5167893653128591;2.393955246977643;-0.9325839487340962;1.0093457943925233;0.5557327299233984;151.0;1.0
-0.2891708542713567;0.4716107103519943;-0.6557934857490106;1.0;0.1648843542357271;203.0;1.0
-0.2671838280241246;0.2788240407822637;-0.5394135345622904;1.0136054421768708;0.118837295979975;204.0;1.0
-0.8010269896552334;1.890443561669908;-1.334356644313936;0.991150442477876;0.547030019770253;153.0;1.0
-0.1664524466781016;0.4300798658219016;-0.5046640933175305;0.9276315789473684;0.1107630311078145;383.0;1.0
-0.2078634013602721;0.4906535171644727;-0.590384111629263;0.9668874172185432;0.1428004491375071;211.0;1.0
-0.2523755913992315;0.6425149659229619;-0.5205915771726707;0.9205298013245032;0.1153554588292885;446.0;1.0
0.0058269556005213;0.5685575761307976;-0.3018153793215454;0.908450704225352;0.1279674789441948;193.0;1.0
-0.171504182047564;0.3703624625689273;-0.5191302689555886;1.0352112676056338;0.1140157629564637;370.0;1.0
-0.145347909422927;0.525797176758867;-0.4487947671502547;0.9605263157894736;0.1315533215713861;206.0;1.0
-0.2118783298705629;0.4697030006044041;-0.4941822168183444;1.4669117647058822;0.1386968602400468;196.0;1.0
-0.1765675843710554;0.7905009569229092;0.4648523882653448;1.2531645569620251;0.2826525447713703;233.0;1.0
-0.0630605048998876;0.6682413121365403;-0.380233963055152;3.1203007518796992;0.1539292545858838;209.0;1.0
-0.1284831922049864;0.6038386517487375;-0.3658293726241746;2.014388489208633;0.1592699502116258;205.0;1.0
-0.0623976896557508;1.0239730789525223;0.0965726854630451;1.8137254901960784;0.1297667279402252;203.0;1.0
-0.2776253978699849;0.7129348714714756;-0.6578167046003432;0.3813953488372093;0.2438617129683239;127.0;1.0
-0.3062410811085544;0.2682505368795374;-0.6440927746728882;0.9864864864864864;0.1336781618965451;196.0;1.0
-0.1780315739438864;0.4748849432257743;-0.5117990604062242;0.383248730964467;0.1194886390714536;321.0;1.0
-0.0075770962084995;0.7168469660946095;-0.4123087987863498;1.9532710280373835;0.1476659249308294;211.0;1.0
-0.2445107782181449;0.4946369215195249;-0.5896366825856749;1.0;0.1042716470305372;494.0;1.0
-0.1701294477322525;0.7608587941092264;-0.5328234531759489;0.407103825136612;0.1764550242884743;200.0;1.0
-0.1460606984399481;0.7662937942701271;-0.4904565303766817;1.6277372262773722;0.1610962439743831;207.0;1.0
-0.5355281525166056;0.7050260831693292;-0.436754287984514;1.0065359477124185;0.1948992012391821;196.0;1.0
-0.4443958132194067;0.9915781871927616;-0.4801272306762263;0.934131736526946;0.1595898594207065;218.0;1.0
-0.2454949257725079;0.6977519165473741;-0.2137805580011704;1.9176470588235293;0.1429062405042723;142.0;1.0
-0.1749599125891202;0.5383210916136187;-0.4449508568538927;0.9513888888888888;0.1206733344588673;381.0;1.0
-0.2101092388816896;0.394543882086535;-0.4607543045999322;1.0551724137931036;0.0999229912372241;380.0;1.0
-0.5546505530239021;0.7705631707733313;-0.436825746265628;1.025974025974026;0.1388886252823794;213.0;1.0
-0.1864776950430197;0.6195084531079711;-0.5159439900081876;2.647482014388489;0.1599334606312044;199.0;1.0
-0.2978128888361493;0.6381390238185841;-0.6276291908826299;0.9933333333333332;0.1812511756587419;202.0;1.0
-0.1949195554916075;0.5169558023278084;-0.5412928266372875;1.0620689655172413;0.1070963931192054;491.0;1.0
-0.2225590540381996;0.2999688001530376;-0.4293177569991803;2.289855072463768;0.1520949979780367;209.0;1.0
-0.1433667497719053;0.3118389928659875;-0.4545484819328142;2.470149253731343;0.0879008690192363;376.0;1.0
-0.1598883289954034;0.5278254593387673;-0.4760106397078835;0.2715355805243445;0.1339361236691395;193.0;1.0
-0.0102347982091797;0.7377467557497807;-0.2331926039970484;1.0067567567567568;0.1168251602459349;552.0;1.0
-0.181498265563476;0.6143558929376535;-0.6326290034370337;2.310344827586207;0.1667725162150406;205.0;1.0
-0.1980090708755005;0.6111973657257388;-0.5466027623099294;1.0416666666666667;0.1693268253986054;208.0;1.0
-0.116516343636907;1.045453710140867;-0.2071147697192525;0.9876543209876544;0.2313017452288752;231.0;1.0
-0.3446652770597147;0.3731227767753798;-0.6466393796230905;0.7621832358674464;0.1422074657076164;211.0;1.0
-0.0713201625013082;0.5616969143760683;-0.3996823726815424;2.911111111111111;0.1041416115077994;366.0;1.0
-0.0982931799153431;0.6059036193413027;-0.3866802367116284;0.9551282051282052;0.1411604835959415;211.0;1.0
-0.5660781920523303;0.6280050758069993;-0.5016522801376122;0.4622641509433962;0.1783476771417122;139.0;1.0
-0.065961164880195;0.7715969861655237;-0.362891433011177;0.9865771812080536;0.153729411590537;208.0;1.0
-0.2679710519694893;0.620377514804844;-0.2396237681549382;1.145945945945946;0.19955570739049;229.0;1.0
-0.1331154418630155;0.7452770212691617;-0.4145049004879492;0.9801324503311258;0.1399660396009922;191.0;1.0
-0.0377538251611575;1.1946464032852309;0.0289179409039244;0.8703703703703703;0.2030983559575942;131.0;1.0
-0.140374398095953;0.9086433264328924;-0.0848116783339749;0.4365482233502538;0.1485078516481025;192.0;1.0
-0.2005276749981897;0.3830965248113597;-0.5169557402610508;1.013793103448276;0.1205925582458248;371.0;1.0
-0.0990083305725147;0.5889044242701237;-0.3747545850590038;1.0;0.1278376016359595;196.0;1.0
-0.233021429301947;0.3284533172046182;-0.5139253225062343;1.0134228187919463;0.0864341119514128;555.0;1.0
0.1123470463966255;0.2364159937097464;-0.1904804968235018;0.959731543624161;0.213388193292028;196.0;1.0
-0.1136544645183589;0.5571643606041151;-0.441794348399025;2.8473282442748094;0.1370829058606752;194.0;1.0
-0.1358381908879454;0.6499789791663027;-0.4323145222583564;0.9864864864864864;0.1423998539225132;202.0;1.0
-0.2075112945337222;0.5723230601867181;-0.5388440593347862;3.986547085201794;0.1209632296148319;378.0;1.0
-0.2463505273345767;0.2420313750747514;-0.5120987744145342;0.9738562091503268;0.1060328409720975;389.0;1.0
-0.1588565834285063;0.5093335066901069;-0.5178950600784782;1.0136054421768708;0.1362851519687898;214.0;1.0
-0.1255919108046091;0.6903462125365447;-0.5016578123379407;1.037924151696607;0.1560887440396927;201.0;1.0
-0.2759461052700181;0.4568082692150708;-0.6086913330103528;0.358974358974359;0.1452117876859363;204.0;1.0
-0.2861513201532092;0.4648212494375417;-0.6233054435743736;1.0;0.1565476507892579;202.0;1.0
-0.2367816172394976;0.5343063165243694;-0.595541836417069;0.9285714285714286;0.1434817172914403;208.0;1.0
-0.1781654503592832;0.7152486773459816;-0.5650540813523645;0.2172073342736248;0.1703909587423635;209.0;1.0
0.0542409129090038;0.6772285515322374;-0.1894454258826402;2.661870503597122;0.111976354463358;308.0;1.0
0.0237661027514952;0.7057027143718774;-0.2801972263464108;0.952054794520548;0.1383449453214115;212.0;1.0
-0.337981311207152;0.6463078981421171;-0.1773423551941803;2.1157894736842104;0.2073001349537049;190.0;1.0
-0.0785879502182127;0.6967205252756408;-0.4279415177659417;0.4778481012658228;0.1610413437486277;208.0;1.0
-0.1578873838803035;0.5707674923352064;-0.4276023063051841;0.9444444444444444;0.1035666600034895;474.0;1.0
-0.2529142057672951;0.4817744704648956;-0.5488654413518944;0.9675324675324676;0.1367501060933308;206.0;1.0
-0.2964826148821662;0.4013539612532326;-0.6552834794222355;0.4116022099447514;0.1476896162494369;208.0;1.0
-0.2305050664484788;0.5111432364316119;-0.5972592469323756;0.9933774834437086;0.1550806695445315;207.0;1.0
0.6908929247509745;0.9021404856528454;0.8563483595412948;1.4867256637168142;0.566437498878547;211.0;2.0
-0.3056461450224842;1.5196814242545822;-0.4565435656005888;0.9675324675324676;0.3106267348328856;212.0;2.0
-2.1556309205798976;0.6597425204619439;0.6474708923489882;0.6374269005847953;0.4898426014965366;195.0;2.0
-0.0757725628816733;0.5805625699604651;0.4073000749404121;1.4166666666666667;0.4341211980160236;194.0;2.0
0.8605009706993854;1.1811916140732126;-2.1642520768785105;0.8156424581005587;0.7222889461388916;185.0;2.0
0.3013249992636088;0.7269512353896009;-0.2256574235883351;0.9663865546218487;0.6600696679821011;163.0;2.0
-2.2357465147096334;0.9262100424059048;0.0327692033028474;1.375;0.5139195781198793;280.0;2.0
-1.952217083921402;0.6756666573060459;0.656649941876838;1.5277777777777777;0.4744355375871526;174.0;2.0
0.1542079943290877;2.447482144126593;-0.2521656590814763;1.0714285714285714;0.4788177905304255;226.0;2.0
-0.6938326571978588;1.5073273891660393;1.2390979774186108;1.03921568627451;0.7522626506572698;182.0;2.0
-2.02796806732167;0.8613146145753109;-0.0144712033238616;1.2881355932203389;0.5314033519817359;191.0;2.0
-0.2417270108451931;1.089453832588157;0.0043335713282889;0.7396449704142012;0.3567762719074921;189.0;2.0
-0.0157271033005238;1.874863629188952;-0.545136204657161;1.0916666666666666;0.4330541836009632;200.0;2.0
-0.3043278447256566;1.357750222379016;-2.3370524464913687;1.643835616438356;0.7244190316348821;213.0;2.0
-0.109976360642101;1.1289899915794446;0.0939238824365726;1.0;0.3451809901366844;180.0;2.0
0.3230415123552771;0.9089359931628996;-0.1265843902671649;1.4567901234567902;0.7085172236092933;165.0;2.0
0.3992555315996861;0.9662550891762632;-0.0074278443650918;1.0263157894736843;0.6546937012829588;167.0;2.0
-0.2136660913253016;1.6080212910497282;-1.725786486828757;1.0350877192982455;0.5568647725515934;223.0;2.0
1.1853444890056577;1.4437751554259712;1.2083744434351544;1.1728395061728396;0.78341707364009;162.0;2.0
-2.1464612391972864;0.9747034220424824;0.0474510377234977;1.6330275229357798;0.5925372429971933;177.0;2.0
0.0206316453818785;1.1803922546313217;-1.1243328479209658;1.1666666666666667;0.3325742392572391;184.0;2.0
0.2483952612381671;0.956964381864633;-0.2695251592277122;0.9882352941176472;0.5692567347363928;232.0;2.0
0.0610636128128032;0.0840007478177697;-0.3022943013012108;0.9126984126984128;0.1941195158270728;183.0;2.0
-0.0826616419631608;1.0065855232866232;-1.6877220617266675;1.4303797468354431;0.5562768458816435;154.0;2.0
-2.361902923986705;0.8789425686969683;-0.0294005780370558;1.3904761904761904;0.6302791002974217;178.0;2.0
-2.1017699094429365;0.7728355274437437;-0.002267627408118;1.9196428571428568;0.5226078463345551;185.0;2.0
-2.164197062265405;0.6505206704424181;-0.0363217818059754;1.649484536082474;0.5171174801054333;183.0;2.0
0.9136289118866542;0.936548429707002;0.895548418630329;1.2777777777777777;0.4785537779450958;200.0;2.0
0.508366664885908;1.0149356122337023;0.0988960778203616;1.6619718309859155;0.6468973624516015;168.0;2.0
-0.2141470269811176;2.357723255140271;-0.8162646891558958;1.0202702702702702;0.6504241474795733;207.0;2.0
-0.6196720999453884;2.3531208683743188;-1.91142904569676;0.9908675799086758;0.9915596396569534;151.0;2.0
-2.029673575360875;1.0721092952680165;0.1099121850211959;0.9734513274336284;0.6261948330326358;170.0;2.0
0.7602599561914838;0.7799852822297723;-0.0365591090611385;2.0727272727272728;0.4827456134710569;212.0;2.0
0.2226368823191507;0.2337755056144229;-0.2007300343026751;0.9928057553956836;0.2629371460172582;143.0;2.0
-1.9555837568092007;0.7312947774837744;-0.0851871823846138;0.5483870967741935;0.4493093942686018;177.0;2.0
-0.2586495760591584;1.4953960884861812;-1.3062380536008693;0.9834710743801652;0.4961312200059293;112.0;2.0
-2.1824000930463616;0.8126000177230808;0.8093999767383663;1.5913043478260869;0.5100603098414115;200.0;2.0
-0.1670617076230561;1.156903302425368;-0.053134427589933;1.5591397849462365;0.3630387528011205;193.0;2.0
-0.2578381828446295;2.236141807286171;-0.5590491843229616;1.7333333333333334;0.5133373123013957;250.0;2.0
-2.2345627223239743;0.8226687574271212;-0.0579920417710821;1.5267857142857142;0.5620281481587428;208.0;2.0
-0.4172904083042742;2.441861625350552;-0.7125692355566697;1.71900826446281;0.6001954846067596;230.0;2.0
-0.1324644212531385;0.857651303266498;-0.8201546990887787;1.0666666666666669;0.2571316400838581;161.0;2.0
0.5922245943838411;0.6022880093705556;-0.0366652089006515;2.163636363636364;0.4494363368307636;235.0;2.0
0.0322465884144844;1.1018370438280756;-2.3135709769862114;1.6027397260273972;0.6646427328333963;162.0;2.0
0.1835423035405036;1.5980471106552818;-0.7653069226376888;1.2;0.3740158295808816;169.0;2.0
-2.0111266943775714;0.6200061556959777;-0.092740226494473;1.3728813559322033;0.4750184586414162;167.0;2.0
-0.0393516494721489;0.8669315948576495;-0.3198695956307986;1.3952095808383234;0.2375115871666409;271.0;2.0
-1.7768962832578552;0.5619161362835301;-0.0607711962172122;0.5969387755102041;0.4143235922290901;190.0;2.0
-2.0171817927082185;0.97731713619023;0.0290846963785843;1.2341772151898731;0.625760696714258;161.0;2.0
-0.2558598097504033;1.4275484467679902;-1.4368957919628007;1.0178571428571428;0.4681074910301404;159.0;2.0
0.1281572783430027;0.6863641486841827;-0.1710094651505591;1.424778761061947;0.5896435831443987;164.0;2.0
-0.0315949317856977;1.4001339759827292;-1.197912127869017;0.8879310344827587;0.4769946340735025;135.0;2.0
0.5896855443563556;0.5976179768860831;-0.1044761569783511;1.3421052631578947;0.4516826748341649;232.0;2.0
0.2993307020448366;0.8770484116934351;-0.0072807352668868;1.018181818181818;0.6166723429431259;159.0;2.0
0.7119553693379407;0.7212013242662489;0.6815199811402598;1.1588235294117648;0.5504781861434479;223.0;2.0
-0.1693625081997155;0.9829988179005515;0.7952879754568818;1.0155038759689925;0.327884546492212;186.0;2.0
-2.0515194101072347;0.7082556536959219;0.699306593725801;1.542857142857143;0.4927634083124884;196.0;2.0
-0.0296706869415371;1.4090505775663935;-1.313303537816135;1.914634146341464;0.5068159461981689;197.0;2.0
-2.111657278043793;0.8669373608434767;-0.0686221990736342;1.5252525252525253;0.6107370304311118;161.0;2.0
0.6020397253512277;0.7679270748318358;0.1574066849311345;1.7184466019417477;0.5160518482613247;178.0;2.0
-0.3291855172831729;1.7449045816014352;-0.6476682634185886;1.0294117647058822;0.3752125230592537;192.0;2.0
-2.1899119906881266;0.6851021788023567;-0.1473258673410842;1.475;0.5466966248745323;191.0;2.0
-0.3688630836777922;1.127985252563716;-0.7804808961354086;0.9666666666666668;0.3081639214788543;243.0;2.0
0.1437403143862693;0.7028780566487909;-0.2390286325189447;1.4625;0.6438130159760352;167.0;2.0
-0.0883891135438384;0.2481256498910454;-0.150036402245499;0.8493975903614458;0.2120131309157213;177.0;2.0
0.3242911678529138;0.4837419069031948;0.4753340565154803;0.9484536082474226;0.3415600164767838;244.0;2.0
-1.8356242438102068;0.6145978558020531;0.5592341953656326;1.025;0.4531677845916634;156.0;2.0
-0.2320188651051128;1.1901857588049185;0.0180456666886741;1.1468531468531469;0.3762965961254912;186.0;2.0
-0.5253225214130898;2.329503851729558;2.269428480481434;1.0;0.9536933995344196;160.0;2.0
-0.3745078455462185;2.1882717640833285;-0.8018706023228128;1.789855072463768;0.514273185383878;226.0;2.0
-0.1032041347856562;1.69644505582254;-1.9372223142207028;1.0;0.6229237327732262;241.0;2.0
0.2253579327189315;1.938151972828973;0.1574824261291951;0.9553571428571428;0.6850069773083147;177.0;2.0
-0.1780938281494055;2.7087317150872123;2.5984677675146832;0.9473684210526316;0.9611994379008764;155.0;2.0
-0.3508235684401382;0.9365243304329158;-0.663855343258156;0.9731543624161074;0.2639918222255971;227.0;2.0
-0.2470807764971341;1.1392004958345017;0.0832434214153265;1.553030303030303;0.3896785292659733;178.0;2.0
-1.8678481700296496;0.6691683428981623;-0.1104535606188907;1.3515625;0.4402931361972876;201.0;2.0
0.1050054107163925;2.683042970932617;-0.7815573604789243;1.027027027027027;0.9889379578801284;161.0;2.0
0.4084380314633955;0.931996927153761;0.6575628687611592;1.286885245901639;0.5483142687358237;206.0;2.0
0.8801738068567686;0.8814615576591904;0.0144782204040534;1.6666666666666667;0.6137207671445634;164.0;2.0
-2.016502984389424;0.8859432101005247;-0.2874763604678023;1.05;0.5967446681237853;221.0;2.0
0.5445119099157184;0.9717574054573678;0.8293561821067741;1.1382978723404256;0.6247204985803544;177.0;2.0
-0.0911050712713555;1.241532376999979;0.2174550905426819;0.7894736842105263;0.3842165249844592;191.0;2.0
-1.8315892176361777;0.6040792551168087;0.5618475116623078;1.4587155963302751;0.4213130168559138;220.0;2.0
1.1977300289725783;1.5367230611415876;-1.85118462134614;0.7024793388429752;0.6559557666990012;217.0;2.0
-0.3112670718780809;1.043195129215816;0.1973069689361787;1.2481751824817515;0.4308316002779137;191.0;2.0
-0.4439490304693947;1.2978052223086531;-0.5866827473904856;1.045112781954887;0.3178606324722337;194.0;2.0
-0.3730336248452718;1.311444534190069;-0.3624123887824738;0.2225913621262458;0.3023087008950607;228.0;2.0
-0.289744252344893;1.136118938790307;0.0196088303782889;0.9264705882352942;0.3761368433018615;174.0;2.0
-0.1794043224141975;1.0223057886028213;0.1107104504082329;1.8144329896907216;0.336279656767564;192.0;2.0
-0.2781011345385639;1.327439537831279;-0.5250211071112836;1.0185185185185186;0.2879747036746393;217.0;2.0
-2.205730071388322;1.0302779735220142;0.0342544520165981;1.2083333333333333;0.6320793773934705;164.0;2.0
-2.168278418101569;0.745929109145545;-0.0845027028465126;1.761904761904762;0.5291576034810634;183.0;2.0
0.1596010860621331;0.8055657540897387;-0.2320730164552831;1.4268292682926829;0.6351544617665281;161.0;2.0
-0.2951981200841316;1.044107289133836;-0.0608731575164363;1.4831460674157304;0.3575185481756714;183.0;2.0
0.7309632424996537;0.7776425840137282;-0.0219357212913761;1.0847457627118644;0.5256132791230405;185.0;2.0
-0.4534390154459485;2.64181271758919;-1.744025501060133;1.0;0.9864842178116012;153.0;2.0
-1.7445255386403629;0.6820599442900445;-2.2329338938217065;0.7432432432432432;0.5903414865384377;272.0;2.0
0.13;0.7951953555838924;-0.1942079811091878;1.0;0.6344935525895802;164.0;2.0
0.5862023435243215;0.6710855861783668;-0.2206472946715204;0.73125;0.4999821407775736;208.0;2.0
-0.134286381395925;1.4992088399889445;-1.339622266719774;1.4324324324324325;0.409577363222085;163.0;2.0
0.4020360140240127;0.7319614036881537;0.6346382148479183;1.5655737704918034;0.5331583903874255;211.0;2.0
-2.307593675626028;0.6836189649171188;0.6728452821664987;0.9117647058823528;0.567911661609256;190.0;2.0
-0.1396634751113362;1.7499102204683183;-2.086146870804438;0.9712230215827338;0.6847598858581078;201.0;2.0
-1.1883042818207992;0.4111915948004135;0.4017754855482873;0.831081081081081;0.4025382123564602;118.0;2.0
0.4854347126584649;0.884334868275961;-0.0170210439612954;1.2567567567567568;0.5525333684154898;230.0;2.0
1.1968766808558422;1.2109791529188716;-0.1699633229878212;1.688073394495413;0.6872821251400608;232.0;2.0
-0.2722943109726534;2.025780328280252;-0.8196960990947134;1.003067484662577;0.6691000619509077;154.0;2.0
-0.2866458432039527;1.4245352016598014;-2.215598226671972;1.0172413793103448;0.6584332440705917;234.0;2.0
-0.2300484257202815;1.862560892236407;-0.5504605367170139;1.041958041958042;0.3797386125482303;203.0;2.0
0.6659919295823636;0.7037881355374387;-0.1204714354523455;1.4111111111111112;0.4774535568377601;195.0;2.0
0.2978350200063338;0.321528952476648;-0.0547225936139865;1.0063291139240509;0.3065629303681877;231.0;2.0
-0.134789751793639;1.5596161572224556;-2.1735853624478256;0.9482758620689656;0.6843213411782717;239.0;2.0
0.689382650255409;0.8032406881557584;0.7684678901119599;1.5047619047619047;0.5436342532547536;189.0;2.0
0.2331495615798106;0.2745988009589875;0.2659027439730984;1.3394495412844036;0.2926679019502097;258.0;2.0
0.589128617366216;0.6555548930659647;-0.0330152585079869;1.5344827586206895;0.4777871512699414;187.0;2.0
0.2335517894122472;0.8045172351898635;-0.1436807905874178;0.7371794871794872;0.5524739434439688;173.0;2.0
-0.1265874707939671;1.92744513334652;-0.5953874376994398;1.431818181818182;0.6638029400843533;133.0;2.0
0.6636170329957171;0.8948046904078484;0.5594592140119101;1.0307692307692309;0.4772939982918086;170.0;2.0
-0.012031860176931;2.348891313837412;-0.3394565998713865;1.8018018018018016;0.4884698369927917;288.0;2.0
0.2689578165870023;0.8424695579690408;-0.0837517429634902;1.5384615384615383;0.6376418345883366;163.0;2.0
-0.2416964857702555;2.3994022893941875;-0.4178014645030407;0.994535519125683;0.49544243684704;254.0;2.0
-0.2464962689337144;0.7613983811877282;-2.2579911803174184;0.931372549019608;0.6151043907686679;165.0;2.0
-0.093462029708481;1.7805120267519694;-1.223060318499302;1.4333333333333331;0.4524339118095383;162.0;2.0
0.8186084304258571;0.918545045427881;-0.134682760443378;1.213114754098361;0.734536251820113;164.0;2.0
0.214480290787272;0.2718659475782405;-0.1822160943728686;1.0545454545454545;0.3047211520829294;245.0;2.0
-0.113992171966639;1.1159162473166766;0.2552427246811466;1.5268817204301075;0.3604766679701179;189.0;2.0
0.4942404483331066;0.7897967036098709;0.7635335984118943;1.1694915254237288;0.53589959258172;177.0;2.0
-2.40464379547518;0.6955275617937657;0.6431071304805849;0.538961038961039;0.697945469024768;150.0;2.0
-0.287785707923234;1.0598336422371704;-0.096150701390015;1.2341772151898731;0.3197364208422718;206.0;2.0
-0.2230467192752779;0.7647920513004766;-2.2596085889398223;1.6575342465753424;0.5989137673594702;165.0;2.0
0.2850326715065464;0.6296670195876755;-0.0626590369368811;1.2026143790849673;0.456041424078392;187.0;2.0
0.116513495224646;0.5308969066693813;0.5065812174096513;1.394736842105263;0.4458939503145899;183.0;2.0
-0.1165141728512724;1.2658356026300708;0.0325602739608073;1.0833333333333333;0.4006778173018532;181.0;2.0
-0.0418264896457281;1.5475303220075205;-1.208610073317314;0.8507462686567164;0.4302548287424435;165.0;2.0
0.5532843802297203;0.606262151968793;0.4744954437736617;1.5229357798165135;0.4494437865783453;209.0;2.0
-0.1660800817390551;1.4481168368518214;-1.0303926884530452;0.9758064516129032;0.4056438611081339;162.0;2.0
-0.6966317453103653;2.126681114518659;-1.3197343402352264;0.9635036496350364;0.6648053914757652;180.0;2.0
0.3261780846379286;0.3473254684463335;-0.2110831501591129;1.263157894736842;0.294472368228887;261.0;2.0
0.7227772633667491;0.9456210182815044;0.1317194579392401;1.1932773109243695;0.6114372982434527;163.0;2.0
-0.2798628534562094;1.1984977604499956;-0.01135302910598;0.4368932038834951;0.4069091107792231;194.0;2.0
-0.4202970195038678;2.563398874319983;-1.126678521042172;1.074766355140187;0.990048760624773;156.0;2.0
-0.2855066278636659;1.865573312561461;-0.5616790036399523;0.9797297297297296;0.3841861049510061;209.0;2.0
-0.411273138860974;0.8422767313615374;-0.7224647228070734;1.970873786407767;0.1691056417497674;183.0;2.0
0.3213712509282264;0.4473093414988374;0.3970361382922089;0.4553571428571428;0.3518207252858429;288.0;2.0
1.2140898616914682;1.2151081422518637;0.3853192164955736;1.3805970149253732;0.4447886624802757;179.0;2.0
-0.3874270943759204;2.3298905720725265;-0.7393747611449597;0.9943502824858758;0.5196841350473858;222.0;2.0
