R_val;S_val;RR_l_0/RR_l_1;signal_mean;signal_std;seq_size;label
1.5024872134807277;-0.6037462807578431;0.9171270718232044;-0.2969337878575858;0.2549170796696887;256.0;0.0
1.1476999811395534;-0.5304522885117892;1.0133333333333334;-0.2652783841725379;0.2324892080122269;210.0;0.0
1.6401659140603184;-0.5937353192631271;1.0279329608938548;-0.2063479388125339;0.247014520384109;257.0;0.0
0.9778182546734194;-0.4167828034165162;0.9875;-0.2731441415391915;0.1591295157767001;198.0;0.0
1.7006783825666512;-0.3879528970122456;0.9827586206896552;-0.300285165669753;0.3686909437125391;230.0;0.0
0.9542407409077682;-0.3566339280638991;1.0316455696202531;-0.2580040748005381;0.1424164462548188;230.0;0.0
1.4180296369447352;-0.6763717273325954;0.9781420765027322;-0.3322757814890261;0.2452422274871715;245.0;0.0
0.9904409905344812;-0.4607415834602548;1.0120481927710845;-0.3766642550988653;0.1752205422220688;195.0;0.0
1.908985234074677;-1.1554518928204949;1.0;-0.256499340829612;0.4853439096629823;157.0;0.0
2.2996698445532626;-0.9903296682572852;1.0412844036697249;-0.0432506086600516;0.4883070726238756;156.0;0.0
1.9471268367488777;-0.48192776782153;0.9631901840490796;-0.2425075355186372;0.3776871253252188;227.0;0.0
1.651397962121228;-0.4920556336156643;1.011904761904762;-0.189860125987289;0.2524870683422374;251.0;0.0
1.7643211938385797;-0.5244891891351081;0.9497206703910616;-0.2278642267959926;0.2660046988575415;245.0;0.0
1.904394204348082;-0.2592170863127152;1.0479041916167664;-0.0817925823952355;0.258634587756351;255.0;0.0
0.980710722318865;-0.3796049066957906;0.9751552795031057;-0.2720625621554979;0.1549346267168199;226.0;0.0
1.3971843070744876;-0.3765176252030244;0.9708029197080292;0.0439946971289212;0.2995354971827073;179.0;0.0
1.2167169151861197;-0.4878391959798994;1.0211267605633805;-0.2228446198940166;0.2511454613842541;201.0;0.0
2.164510920506955;-0.3792786594146895;1.0375;-0.1855913911834829;0.4025004297117023;217.0;0.0
2.053186235669439;-0.497091644269384;0.970414201183432;-0.2593097500383521;0.3967691260874775;244.0;0.0
1.906752856891471;-0.4262973672021351;1.023391812865497;-0.2242302794966121;0.2863388613790213;225.0;0.0
1.704624660222824;-0.4556727395257856;0.9835164835164836;-0.219234726991826;0.2662476798640664;251.0;0.0
1.0625411110224887;-0.2737035064250414;1.0;-0.2044770841119074;0.1505911962564872;219.0;0.0
2.083071873430644;-0.3450315185175751;0.9315068493150684;-0.0660236375613545;0.4065684573584309;203.0;0.0
1.2164867355407298;-0.4861804346578871;1.4859154929577465;-0.2338795313382363;0.2535059585813899;195.0;0.0
1.318069324415469;-0.5320429206119145;0.962406015037594;-0.1012751441874971;0.2890018858350874;187.0;0.0
2.1215175870064216;-1.18024012480412;0.9473684210526316;-0.189319613984371;0.500048163030212;153.0;0.0
0.8937944516841566;-0.4269033543310275;0.9880239520958084;-0.3223046723307759;0.1458653022052432;227.0;0.0
1.9178597323393145;-0.3376814440598992;0.9602272727272728;-0.158986462541208;0.2674221025466252;259.0;0.0
1.233982218875204;-0.5054171874573428;1.0074074074074073;-0.2317231388818803;0.2348114364451902;227.0;0.0
0.9089366233355616;-0.5546853759757808;1.0126582278481011;-0.4049501156622914;0.1652079439687788;219.0;0.0
2.890000000000001;-0.8038856431733417;0.9734513274336284;0.0680460703033115;0.8262967822684107;219.0;0.0
1.2095321170258058;-0.5364426465900923;0.9929078014184396;-0.2652974440907494;0.2621753966869204;204.0;0.0
1.4712252378988335;-0.6428341211156811;1.0;-0.3229124935944382;0.2416637933417491;234.0;0.0
1.6416219349983918;-0.6261473961930759;0.9945945945945946;-0.2583977989481449;0.2442141375757274;247.0;0.0
1.5699846471193484;-0.2317249537503528;0.9774436090225564;0.233464960653081;0.2806500435032026;189.0;0.0
1.4128790158577695;-0.6717024293896916;0.994011976047904;-0.3313419613200855;0.2468558143560809;229.0;0.0
2.8436562002287125;-0.6871311712943071;0.9310344827586208;-0.0543724045226862;0.727673540351892;240.0;0.0
2.1042096020125545;-1.1214400728038514;0.990909090909091;-0.1993352918219453;0.4868823958225175;154.0;0.0
1.14706518356534;-0.5672008100933533;1.014388489208633;-0.31032876556145;0.2335865144517608;192.0;0.0
1.306672278929713;-0.4443680431143236;1.0068027210884354;-0.2176126316820028;0.2793747649808365;212.0;0.0
1.2293586831789007;-0.4413987163482303;1.0141843971631206;-0.2237774844255272;0.2951494397786519;196.0;0.0
1.2532667875271084;-0.6561352821270153;1.089820359281437;-0.3289917715364746;0.2247837634045172;233.0;0.0
1.8962553380593672;-0.3638939374409032;0.9612903225806452;-0.1463702849670906;0.3697837067391533;231.0;0.0
0.9060895374853316;-0.4228206298118519;0.9807692307692308;-0.3213542781879238;0.152134416473336;214.0;0.0
1.008646543127346;-0.4877647519354293;0.9534883720930232;-0.3595758610891245;0.170883430549646;229.0;0.0
0.9677540032137072;-0.3397208095467244;1.005952380952381;-0.2552036377899284;0.1425127707630656;227.0;0.0
1.8436991017492024;-0.6022861141863988;0.535;-0.3824309522487917;0.4114969695499162;201.0;0.0
1.535670249796304;-0.4972338351963127;1.0365853658536586;-0.2452927864441642;0.240525230518062;244.0;0.0
0.8654323667437771;-0.5224088369291953;1.0070921985815602;-0.345376033117212;0.1531023630595958;203.0;0.0
1.1385183109394184;-0.4902690060820932;1.0;-0.3113557562746812;0.1936378262969577;219.0;0.0
1.8168164524345176;-0.4036584849832002;0.9766081871345028;-0.2211675771160524;0.2727516977440763;250.0;0.0
1.587449815362603;-0.668707278634113;0.9825581395348836;-0.3596557791042846;0.2678997872080729;242.0;0.0
1.6447873443019174;-0.5191298637994018;1.0;-0.1644422440521369;0.2473707323166032;238.0;0.0
2.5697025065947816;-0.7055949445045357;1.0666666666666669;-0.3721310035633444;0.6508073897506661;308.0;0.0
1.1553380929142991;-0.5358966296766562;1.0071942446043165;-0.2785664691516989;0.2758189153310953;160.0;0.0
1.577458551804188;-0.4623301323060802;0.9651162790697676;-0.223737553078292;0.2533113692639493;250.0;0.0
1.911450126855656;-0.252579841087266;0.9551282051282052;-0.0702820577023458;0.3364939037567973;227.0;0.0
0.7935278713241956;-0.5182703425201974;1.0061349693251531;-0.4230163695407266;0.1590242326267899;227.0;0.0
1.904024319128173;-0.3257814855130033;1.0;-0.1017831605776934;0.366989502717126;225.0;0.0
2.154112002745683;-0.971621595655562;1.0789473684210529;-0.0164477894470116;0.5255381430123703;162.0;0.0
1.2273589181204845;-0.5651232136902488;1.0305343511450382;-0.0596981646872017;0.2844773421977208;191.0;0.0
0.9523240887848348;-0.4267818707140776;0.9473684210526316;-0.3174200571673742;0.1569263396018049;218.0;0.0
1.938176133331683;-0.4690876351038272;0.5333333333333333;-0.2450617842898313;0.3891541684450373;236.0;0.0
1.767375431298943;-0.3153611437734045;0.9491525423728814;-0.151297174366901;0.2542224792980778;248.0;0.0
2.091835557138712;-1.2387905330805464;1.009090909090909;-0.3430577793091327;0.5237907959889553;154.0;0.0
1.784458177357272;0.0957795590184124;1.0390625;0.2212160371416721;0.2369957640953225;189.0;0.0
1.107439203297789;-0.6642862829428734;1.0073529411764706;-0.231147537311856;0.2861643455362467;176.0;0.0
1.856086887926157;-0.3539547590208231;1.0;-0.1637338095909582;0.2788550635916716;228.0;0.0
1.1054490255503258;-0.3036319542831465;0.9882352941176472;-0.2292730985662451;0.1639115177810584;233.0;0.0
1.8096324658382776;-0.4631135057671824;1.0426829268292683;-0.2215907123976926;0.264025917327135;244.0;0.0
1.067160591458555;-0.4163641840991149;1.0;-0.3141334646956607;0.1758784736404009;213.0;0.0
1.131296721234066;-0.4856479423795584;1.0503597122302155;-0.2409604671019828;0.2173763512601115;201.0;0.0
2.6207913577542854;-0.9497740213064774;0.9553571428571428;0.0066010115199372;0.6857624199601643;312.0;0.0
1.1964150662262798;-0.5026071273425804;0.9931972789115646;-0.2500403450715204;0.2466353716894164;206.0;0.0
1.2579481072156862;-0.4695653716708752;1.0;-0.1792672003060565;0.2538168077769046;204.0;0.0
1.5809102206207988;-0.0636421977267772;0.9873417721518988;-0.3199809025618699;0.3246125934355306;215.0;0.0
1.182418312225447;-0.5914004915094512;1.2666666666666666;-0.3142805419400579;0.2626208129141237;207.0;0.0
0.9874518912455572;-0.4403874518942657;1.1355932203389831;-0.3011261313480715;0.1582830836342888;234.0;0.0
1.0787518640307578;-0.4238307432969319;0.9176470588235294;-0.315922826803781;0.1703121557405261;230.0;0.0
1.8787283033648008;-0.4324559199203215;0.96045197740113;-0.1648727704937559;0.2731646069899329;249.0;0.0
1.688037501491019;-0.3764684462948146;0.9252873563218392;-0.1836859037907312;0.2505653664085119;248.0;0.0
1.7146801222965395;-0.3859838519133782;1.0372670807453417;-0.2262012381269465;0.2552616269599838;257.0;0.0
1.7176356287892456;-0.4055661341286231;0.9940476190476192;-0.1890658930829791;0.2623692755980547;230.0;0.0
1.2211772161567298;-0.550660392232718;0.9724137931034482;-0.2719936889382138;0.2686395795246513;197.0;0.0
0.9291781539801244;-0.5195211604707548;0.945121951219512;-0.3387562808939289;0.161847307443081;240.0;0.0
0.922192939701388;-0.4200246266092974;1.0794701986754969;-0.2711340251770066;0.1744279987614286;206.0;0.0
0.9759753330522488;-0.4545267370623635;1.0576923076923077;-0.2892364699002145;0.1556014008109126;221.0;0.0
1.807367057226153;-0.4281644608806615;0.9615384615384616;-0.1925216664800547;0.2806404873847453;233.0;0.0
2.9874675271070408;-0.9911149223607196;1.0321100917431192;-0.1552145921744127;0.7370981383322988;311.0;0.0
1.0977179993047124;-0.3093064272240553;0.9875;-0.2560936438898613;0.1642805834756745;226.0;0.0
2.1626517034834207;-0.375751240841847;0.9696969696969696;-0.1553887060405524;0.382812007601973;257.0;0.0
1.202352024194841;-0.349163905796553;0.9467455621301776;-0.2586385940247135;0.1759740182661585;234.0;0.0
2.36339464198998;-0.8759682639927162;1.018348623853211;-0.0394447797913048;0.5038326969071267;154.0;0.0
0.4934421725839315;-0.6157904976192963;1.006578947368421;-0.5037125161851935;0.1278537611840532;209.0;0.0
1.8569775307743768;0.0238488279103666;1.0472972972972974;-0.1693650391162835;0.3147848153548441;229.0;0.0
2.3316956415049908;-0.7689316014253414;0.5944700460829493;-0.2395513212421619;0.6174630368045431;227.0;0.0
0.799570253798444;-0.5989865767258944;0.9523809523809524;-0.4536323105188778;0.1676890644826807;206.0;0.0
2.0368819981279183;-0.3830437732442076;0.9497206703910616;-0.1390065136686871;0.4112646497614381;232.0;0.0
2.267872271600641;-0.6089384924988369;1.1842105263157894;0.2543678966773268;0.4782340381441691;156.0;0.0
0.8258193481428154;-0.4783818349177644;0.9938650306748468;-0.3363387541249562;0.1421501218259823;231.0;0.0
1.7640569085319502;-0.4098618554192387;1.0116279069767442;-0.1335072488036734;0.2495967940290765;236.0;0.0
2.4768778304346046;-1.0926381593660168;1.0091743119266054;-0.2702359417110346;0.6966690915212685;309.0;0.0
2.8407659363466893;-0.5827351794652816;1.036697247706422;-0.1664434991919022;0.8578400632348606;312.0;0.0
1.2940428239269777;-0.4902259680476541;0.958041958041958;-0.2175059823623663;0.2714738976681646;202.0;0.0
0.8704225843263756;-0.4263830827834254;0.9939024390243902;-0.2787132056686101;0.1448147490311343;234.0;0.0
1.7311828065242778;-0.5064699620682229;0.9821428571428572;-0.2394525530979719;0.2545349811820038;248.0;0.0
1.2669777131405215;-0.5042726458682603;0.9859154929577464;-0.2496860443511278;0.2618635213754278;198.0;0.0
2.145955067005536;0.1735790918781643;1.2420382165605095;-0.136242239167463;0.3856450869904642;222.0;0.0
1.2840878366036623;-0.4043574623534951;1.0354609929078014;-0.1743108306534311;0.2652947422957378;193.0;0.0
1.2977072092520283;-0.4530651821182355;0.96;-0.1641833796705327;0.2710883684107903;204.0;0.0
1.1808113637841542;-0.5769844995662782;1.0;-0.1317234618015108;0.2929289099049468;190.0;0.0
1.1036548984816907;-0.4157140920164994;0.9798657718120806;-0.271340383066279;0.1984002225162183;218.0;0.0
1.0994623138854671;-0.4112699090165732;0.9352941176470588;-0.3145364051694982;0.1803789917076304;236.0;0.0
1.8363875222513737;-0.3256250590635219;1.0136986301369864;-0.1387914904389261;0.3682953571693983;178.0;0.0
0.9014762998514372;-0.367420352549101;1.038216560509554;-0.29889298820332;0.1577081315537056;215.0;0.0
1.8283005164309645;0.0834255023604634;0.9151515151515152;-0.3482135023336344;0.3567347623077227;258.0;0.0
1.2516526335969544;-0.5282241230716568;0.9647887323943662;-0.2621488181994423;0.2623680521616781;202.0;0.0
1.257514881802072;-0.4287013666742522;1.3741496598639455;-0.1914265782946859;0.2455647733455683;202.0;0.0
1.7690231847172475;-0.4186628940458593;1.0057471264367817;-0.2076105236545459;0.2654309382386322;246.0;0.0
1.177745014899541;-0.4765162891561599;0.9591836734693876;-0.2111473293095371;0.2419734423406242;205.0;0.0
0.8896084378163831;-0.5167871603629544;0.9793103448275862;-0.3681426319781505;0.1664496996169039;206.0;0.0
1.9240805023775105;-0.2980097373700173;1.0171428571428571;-0.0644367466888562;0.2634906113556017;249.0;0.0
1.2291364945079473;-0.5385970861090927;1.0215827338129495;-0.2403561548893078;0.2738816259285165;198.0;0.0
1.1089039278274628;-0.3568938641477797;1.0061728395061729;-0.2210173220134477;0.1667670206784656;207.0;0.0
1.805392315650924;-0.4528705311575994;1.5536723163841808;-0.2632292831347251;0.3682863422281193;218.0;0.0
0.9562360871709048;-0.3850460870411086;0.9939024390243902;-0.269814949775562;0.1550006181390029;228.0;0.0
1.4095628401887206;-0.5209398367857597;0.9941520467836256;-0.2137259325961315;0.2254551695205524;247.0;0.0
1.2423871228150616;-0.3690867712840132;1.0125786163522013;-0.2834787695671937;0.1985094452951379;221.0;0.0
1.115470245518318;-0.7711688461189992;0.9779411764705882;-0.1907986913691281;0.2900619353957616;181.0;0.0
2.3252306017104942;-0.4075391642060393;0.9731543624161074;-0.1913160386339664;0.4293877996733704;226.0;0.0
1.940807220302505;-0.4623353454885358;0.4696969696969697;-0.2247242946735706;0.409650403707915;199.0;0.0
2.29569407896655;-0.96451468060864;0.9478260869565216;-0.1334728456436152;0.5004382353728731;152.0;0.0
1.017780564870114;-0.3965244103802986;0.5958549222797928;-0.3372037269746009;0.1735228736520848;229.0;0.0
2.162480929490033;0.0513475782443198;0.99375;0.2750010574481066;0.3121385494289665;215.0;0.0
0.9570527314131482;-0.3281985815020942;1.0;-0.2778614767840308;0.1473639841909078;226.0;0.0
1.185839183219194;-0.4766779707443626;1.3421052631578947;-0.252143644271799;0.2579972425150373;204.0;0.0
1.5153887789677996;-0.5201613000866743;1.0216216216216216;-0.2437682540021308;0.2355676731087591;234.0;0.0
0.8920625075014192;-0.4199627712264548;1.0718954248366013;-0.3304933422664636;0.1512240445560182;219.0;0.0
2.066610508365847;-1.102906905083946;0.990990990990991;-0.2022201049933702;0.4856169662794226;155.0;0.0
1.1770035826341334;-0.4944712454887213;1.0;-0.2190511949794556;0.2499237003530561;207.0;0.0
1.648128758040455;-0.4051611769339238;0.9887640449438202;-0.1858150773337805;0.2582423696160996;242.0;0.0
1.0826334674004772;-0.2521097534429437;0.9817073170731708;-0.2211378567314146;0.1597805577863838;231.0;0.0
1.1477293717329764;-0.5857571987949668;0.9932885906040269;-0.3204374539682995;0.2617383292625411;211.0;0.0
1.6772077745703284;-0.3902667547237627;0.9595375722543352;-0.186352098715105;0.2474385677242597;246.0;0.0
1.1473118791028707;-0.5397066078418273;1.0352112676056338;-0.2953021097784278;0.2361828819611133;197.0;0.0
1.757775540460385;-0.5202162179186354;0.9826589595375722;-0.2462956066112926;0.2758196703885125;229.0;0.0
1.1699026620661153;-0.329441369305287;1.051948051948052;-0.2401783386253156;0.1706187511028587;215.0;0.0
1.299058842261544;-0.4582142981440527;0.9395973154362416;-0.1879622190658071;0.2701419780697833;204.0;0.0
1.2790889394954394;-0.3576799407395565;0.4801980198019802;-0.1618972962488776;0.2535218052549201;203.0;0.0
1.827609941314427;-0.4863161763386268;0.9941176470588236;-0.2774175778118368;0.2734195958197479;245.0;0.0
0.8863461908428483;-0.3925927503686709;1.0506329113924051;-0.2886339937362012;0.1476849967805219;221.0;0.0
2.139722286982584;-1.0897784759432638;1.055045871559633;-0.1460181894516732;0.4744423765698081;154.0;0.0
1.8779505849849003;-0.3865655311723669;0.9488636363636364;-0.1868518414568717;0.2748413922977322;240.0;0.0
1.016478911904467;-0.4364841474225535;0.9709302325581396;-0.3164185344874215;0.1645379571808442;236.0;0.0
1.841776610148356;-0.6315903103691304;1.0897435897435896;-0.4341154486390681;0.4096870729474851;174.0;0.0
1.9828757917239328;-0.4629430115509712;0.9741935483870968;-0.2695189677045242;0.3902258995571735;210.0;0.0
0.9369538270605328;-0.423971953304765;1.325;-0.3735435995009651;0.1602640764673808;224.0;0.0
1.821002849400041;-0.3746046123792793;1.3263888888888888;-0.1347389787315821;0.3854344541835832;197.0;0.0
1.1795390155439724;-0.5255609003504722;1.049645390070922;-0.2209454124748855;0.2461362375398172;199.0;0.0
1.2067651359277167;-0.4218824959638155;0.9863013698630136;-0.1831350580569425;0.2346044589703545;200.0;0.0
1.487734156033838;-0.587829656183497;0.9885057471264368;-0.2472018958844199;0.2417895959247985;240.0;0.0
1.583754112390843;-0.6137113423740422;1.0384615384615383;-0.2704179514118427;0.2417148796413492;245.0;0.0
1.7752592745285314;-0.3718929029855386;0.9831460674157304;-0.1526078410536292;0.2488299212231721;243.0;0.0
1.531147997631947;-0.5426381909547737;0.8415841584158416;-0.3483186178284211;0.3736271929713485;227.0;0.0
1.637120957492716;-0.525821320213612;0.9333333333333332;-0.2306125328885877;0.2592487327855883;247.0;0.0
1.0904614092329736;-0.6017560213983002;1.0080645161290325;-0.1566172785012088;0.2858131442502613;175.0;0.0
2.1847227543403904;-0.9525635869502972;0.9908256880733946;-0.0550986086969802;0.4875123742723496;154.0;0.0
1.549003999859267;-0.6172148492618982;0.9781420765027322;-0.290875790017224;0.2576413628496904;251.0;0.0
0.994567595614402;-0.3419106751919551;1.0379746835443038;-0.2741445570860075;0.1576290238143403;234.0;0.0
1.5284432840976767;-0.532915100897145;1.0106951871657754;-0.0883405096067043;0.2097535343636844;239.0;0.0
0.7447697231518533;-0.4942309351857922;1.0;-0.373022159982539;0.144993087948736;232.0;0.0
2.148607801573574;-0.9411105825987852;0.9728506787330315;-0.2182771935900799;0.4845858355955662;150.0;0.0
1.8635836579101823;-0.5019051426424784;0.9506172839506172;-0.2695029157862184;0.3336400420774583;242.0;0.0
1.2833760256542577;-0.4943760644233706;0.4106280193236715;-0.2134011981772958;0.273346787122641;200.0;0.0
1.863811891370189;0.1650274686207757;1.0354609929078014;-0.1434044822922382;0.3496041874933635;199.0;0.0
2.0055284850989903;-1.1705802360577795;1.0;-0.2959357568002441;0.4758555280304118;154.0;0.0
1.3227063642887664;-0.4535401001924851;0.9668874172185432;-0.1835858863890881;0.2751876769325022;206.0;0.0
1.6751610779237052;-0.459744422256052;1.0516129032258064;-0.2630795653054991;0.2613031246158581;237.0;0.0
2.000488803125459;-1.150291680869882;1.036697247706422;-0.1241543190739642;0.5030893356818804;155.0;0.0
2.07713859547873;-0.3716847080484113;0.3409961685823754;-0.1188069621352808;0.3841777248418996;224.0;0.0
1.3497335887158617;-0.3284582751730905;1.5154639175257731;-0.1147045177192577;0.3271403670688211;193.0;0.0
2.1595403263393016;-0.9740385977167942;1.0;-0.0918871432666409;0.5587493788893068;165.0;0.0
1.601571787410482;-0.4674283526373863;0.9585798816568049;-0.3843653941676253;0.4230522429642638;166.0;0.0
0.7974852170678033;-0.4127973131614757;1.0301204819277108;-0.3081507636163196;0.138291612181902;224.0;0.0
1.4080966309033445;-0.4940821543185186;1.0227272727272727;-0.1738309846970623;0.2237134823864244;233.0;0.0
1.7393711749206755;-0.4679088954524372;1.0616438356164384;-0.2951743408314198;0.3482237479253559;197.0;0.0
1.2752776834489206;-0.4543887523052784;0.9929577464788732;-0.2125108998128868;0.2603638322383254;196.0;0.0
1.9901189767696963;-0.521666052889974;1.0463576158940395;-0.3079005952746006;0.4005999196276142;201.0;0.0
2.896772480654056;-0.4171876219408785;0.5186915887850467;-0.0101040219122698;0.7293186950923558;233.0;0.0
1.2054791317618374;-0.6496954026776173;1.0425531914893618;-0.1026463735700755;0.293544183532103;172.0;0.0
1.2720712189600942;-0.5790885280755877;1.0551724137931036;-0.1635742680854701;0.2820689180643827;188.0;0.0
0.9491020595310804;-0.426987158794719;0.9936305732484076;-0.293269006963597;0.1529297337820264;239.0;0.0
1.3855067321639918;-0.6292731137162364;0.9885714285714284;-0.2711858825010818;0.2344260641093827;226.0;0.0
1.3797948609535686;-0.4911447896366597;1.0147058823529411;-0.338997521032132;0.2280172940066719;204.0;0.0
1.2363379187724444;-0.5773304944626383;0.9797297297297296;-0.3016394673009406;0.2731568279474328;208.0;0.0
1.70596667356219;-0.6058563347808148;0.9941520467836256;-0.2891294446585343;0.2640934722495605;248.0;0.0
1.7445584703024566;-0.4798039596222919;1.0112994350282485;-0.2599118897825286;0.2667543943787231;236.0;0.0
1.7691724852654165;-0.4989074688250085;1.7320261437908495;-0.3139422754844478;0.3723214300974439;212.0;0.0
1.8952093632379312;0.4534699174270054;0.377431906614786;-0.2044038806591872;0.3636783346782533;238.0;0.0
1.087668972285551;-1.045994331439041;1.0216216216216216;-0.6759627260328894;0.2199682576857516;239.0;0.0
1.9172265304803595;-0.254088181922747;1.2307692307692308;-0.064223907712421;0.3372191588331254;223.0;0.0
2.0893165524531123;-0.384183196068699;1.0368098159509205;-0.1468401251166002;0.3957209212461463;237.0;0.0
1.2888192397141738;-0.4816804343165679;1.0133333333333334;-0.211648682062098;0.2628293634711494;207.0;0.0
1.5161280334860332;-0.5511483081600546;1.0235294117647058;-0.2235648154992415;0.2361445594758523;251.0;0.0
1.2488085001739102;-0.6167467593612719;1.023076923076923;-0.1189369546231414;0.2965265161021588;182.0;0.0
1.329022764809212;-0.4816523812351134;0.9607843137254902;-0.19090281499248;0.2689413985563036;202.0;0.0
2.827253431547823;-0.8255300817938596;1.0;-0.16642638548804;0.8059706488838777;311.0;0.0
1.1976543929075922;-0.5523150810447619;1.014388489208633;-0.2607080462557423;0.2585666502323773;199.0;0.0
1.1229881962958117;-0.4541531890089204;0.9928571428571428;-0.2351210579991196;0.2187324430357509;192.0;0.0
2.0366081166663808;-1.030534751357996;0.990909090909091;-0.2776602763149245;0.4618222996108844;155.0;0.0
1.9744629313209363;-0.405328782102374;0.9939024390243902;-0.1557706940170294;0.294572894920949;238.0;0.0
1.1612386969952413;-0.5912814070351755;1.0486111111111112;-0.3113532211566537;0.2673886091048308;207.0;0.0
1.186697788214713;-0.40465521681695;1.0547945205479452;-0.2106579893716829;0.2500548331315676;200.0;0.0
1.464793331132115;-0.4677336794187667;0.9277777777777778;-0.222558042883591;0.2309206384606349;264.0;0.0
0.8730536278834946;-0.462294186216943;1.0063694267515924;-0.3167997720149453;0.1459522312209829;216.0;0.0
2.662422497174872;-0.4469860934745403;0.9824561403508772;-0.0780755835116915;0.607995127695224;234.0;0.0
2.1387415824563867;-0.3887223077011084;1.017751479289941;-0.1735167470579789;0.3819355540057138;216.0;0.0
1.0334596702951668;-0.5134594487566015;0.9726027397260274;-0.3831838566257877;0.2747735066788697;200.0;0.0
2.2327708412561704;-0.9736547167401344;0.9821428571428572;-0.0639409452955457;0.4872258833161061;156.0;0.0
1.384576032238948;-0.4622235136876448;1.0359712230215827;-0.1104078785018541;0.2583061738392827;198.0;0.0
2.21818814240335;-0.9556281779978588;0.8083333333333333;0.0112551606033156;0.4777990706477961;155.0;0.0
1.6239901493840034;0.0697020763213058;1.0263157894736843;-0.3146904590991712;0.3477362409530681;211.0;0.0
1.9453637824774097;-0.4986941414148569;1.097902097902098;-0.248517737138307;0.3732806506053902;212.0;0.0
1.1481154644066427;-0.5387503882664426;1.028169014084507;-0.2549785142544221;0.2532711610281246;193.0;0.0
1.3544748804182227;-0.7439620496846472;0.99375;-0.3146685142925529;0.2604244926842217;217.0;0.0
2.076815983612444;-0.2825937749148321;1.0;-0.0889841239426019;0.3811582131036368;212.0;0.0
0.7540814113641832;-0.6504399561747732;1.0454545454545454;-0.4943329746040119;0.1659797588001731;216.0;0.0
1.983048870579952;-0.3367753264913863;1.0;-0.1407597455091466;0.4060440968355235;168.0;0.0
1.057724031429233;-0.4795788340335;0.9859154929577464;-0.1817937970763203;0.2254759639960055;196.0;0.0
1.1082982705021267;-0.5620320265394152;0.9931972789115646;-0.2851561547787337;0.2280453737084763;203.0;0.0
2.0567954924806373;-1.0031682753929714;1.0566037735849056;-0.2325466476033478;0.5014629244536901;153.0;0.0
1.5243261506942796;-0.5435124986060942;0.9720670391061452;-0.2168888767800003;0.2449624263423259;250.0;0.0
1.7267464397178425;-0.3964696437452186;0.994413407821229;-0.202453872892862;0.2616753748409832;252.0;0.0
1.8360962647675685;-0.4982859536117189;1.0173410404624277;-0.2216864062368414;0.2732893909995552;237.0;0.0
2.051083969309545;0.1894871744846405;1.0580645161290323;-0.0944341060326786;0.3672050861657858;204.0;0.0
1.4580216011669374;-0.5282706568078293;1.0344827586206895;-0.2277186640040381;0.2224988886548354;243.0;0.0
1.975366226152218;-1.1614851882524764;1.036036036036036;-0.1718338168733888;0.517710588557887;154.0;0.0
0.7293746588596423;-0.4973056385912234;1.0130718954248366;-0.3886854534318709;0.147165316062346;233.0;0.0
1.8436361089008888;-1.4055733636317251;0.972972972972973;-0.4887610762065629;0.4649432644316905;157.0;0.0
1.289397376096011;-0.5321811263522325;0.9779411764705882;-0.1351258695517438;0.2895560450447686;184.0;0.0
1.8761595188166853;-0.105;0.9161290322580644;0.0569533314548642;0.3141788650129491;200.0;0.0
0.9302392024002064;-0.3168518215037145;1.0440251572327044;-0.259341518228225;0.1497158842506552;216.0;0.0
1.230498376388447;-0.5212213515161132;1.0;-0.2175627998498533;0.2610563949953198;192.0;0.0
0.7868411066669796;-0.489375655787845;1.0426829268292683;-0.3740507696115349;0.1431916411853866;220.0;0.0
1.2459199348477434;-0.4428892382218122;1.0;-0.1882776446857875;0.2613970226028277;195.0;0.0
1.136516623900505;-0.3595411001906348;1.0242424242424242;-0.2867845809312072;0.1985244223522237;213.0;0.0
0.8391790923166691;-0.4325189497196242;1.0121212121212122;-0.3279547621213555;0.1506904006620189;222.0;0.0
1.918665225208756;-0.3957548498883296;0.3436293436293436;-0.1742086490830145;0.392232679066253;226.0;0.0
1.3217708289241268;-0.5287208908003995;1.0333333333333334;-0.4118939974560088;0.2416169615272178;212.0;0.0
0.8371455223863374;-0.447424941401783;1.020408163265306;-0.3103712578864974;0.1428205510075294;212.0;0.0
1.385335815394845;-0.6310208340283301;1.058139534883721;-0.2683589237943445;0.2175020042908801;250.0;0.0
1.146261213074222;-0.3375070667934827;0.9876543209876544;-0.2707114682939533;0.1799153196856033;231.0;0.0
1.4060757408651976;-0.5265535115940398;1.0276243093922652;-0.2714310106196613;0.2229426942527999;251.0;0.0
1.7410363303854242;-0.4240346953958953;1.067901234567901;-0.2583986435886066;0.2744330710209655;223.0;0.0
1.884631327045488;-0.3248975868567598;1.015384615384615;-0.1078266781067012;0.3571544651487193;210.0;0.0
2.313605079375825;-0.395497323175425;0.3318777292576419;-0.1984736844921725;0.5070598440929079;164.0;0.0
1.6776998890904244;-0.5463007991024146;0.9456521739130436;-0.1760946493263795;0.2459314502029119;265.0;0.0
0.9223072791149494;-0.3501457991400372;1.0542168674698795;-0.2808230479237932;0.1500547303781093;222.0;0.0
1.2098423989232927;-0.5379498297054608;0.951048951048951;-0.2668455335063178;0.264142202768979;195.0;0.0
1.8375115232393888;-0.3667419989976654;1.0481927710843373;-0.2002202807387797;0.2769186107013573;246.0;0.0
2.2782935557089425;-0.2623316191326434;1.0753424657534247;-0.0430501479058457;0.464229850382454;164.0;0.0
1.3332360176868898;-0.577431639742809;1.0223880597014925;-0.1288878588683594;0.3026980803652323;190.0;0.0
1.5412771796420142;-0.4113558752915736;1.0355029585798816;-0.2519666332235373;0.2406702238728273;235.0;0.0
0.9024522464419252;-0.4800109349858357;0.9693251533742332;-0.3617335688120928;0.155722834921913;235.0;0.0
2.325373457674493;-0.7365147773511559;0.9636363636363636;0.0045264376197834;0.4743393871744619;153.0;0.0
2.120160367316184;-0.3208058902364366;0.9695121951219512;-0.1205016232550834;0.4404609627610508;185.0;0.0
0.9674058247297012;-0.3638265920228607;1.3;-0.3092406010684485;0.1469555491405702;218.0;0.0
2.109860860583905;-0.9341704688754364;1.009090909090909;0.0403999673123018;0.4743052442177871;152.0;0.0
1.548968022525671;-0.446383384059038;1.0116959064327486;-0.1392867530546072;0.2398994920950332;249.0;0.0
1.4800057814990235;-0.5760152354480524;0.9777777777777776;-0.1953656202643652;0.2292821405782922;246.0;0.0
1.9194937660906184;-0.430127628736234;0.9482758620689656;-0.2101216793141804;0.2840075446575507;255.0;0.0
0.8724458404792497;-0.51070825088675;1.0303030303030305;-0.3647131525345227;0.1563518051140004;227.0;0.0
2.479938225681103;-0.7006691801587748;1.0089285714285714;0.0750639994960827;0.6154423207372769;153.0;0.0
1.0226371959783327;-0.3615849594896694;1.0;-0.3156590810724157;0.1690805107023575;220.0;0.0
1.5515910739265706;-0.5421409868974559;1.0056497175141244;-0.2181673312720077;0.242992779743142;238.0;0.0
0.8713567757021276;-0.4258701908200828;0.9808917197452228;-0.3276934860864491;0.1530279309074365;230.0;0.0
2.306881077950353;-0.3201693298858131;0.9683544303797468;-0.116051630303381;0.4376959702358465;231.0;0.0
1.1371660488615083;-0.3918722024237161;0.9583333333333334;-0.1814583992419697;0.2251491587705124;194.0;0.0
1.6809852043156208;-0.550424655268161;1.023391812865497;-0.2658747280110073;0.2664541558836326;230.0;0.0
0.92596976842364;-0.5094595784648679;0.9518072289156626;-0.3987185620823906;0.1614940875790191;234.0;0.0
2.14826898336821;-1.1906229801203527;1.0;-0.3188627739039119;0.4809008318765633;155.0;0.0
2.0925010595778315;-1.0842840259500663;1.0458715596330277;-0.1409684525690143;0.4972663356500358;158.0;0.0
1.7814060159140843;-0.456968060696095;0.9558011049723756;-0.1248850583868494;0.2509753568176466;247.0;0.0
1.732001379284067;-0.5513428320000225;1.0;-0.1817635234768568;0.2556632573053636;253.0;0.0
1.1323121615948917;-0.650791409799235;0.9694656488549618;-0.0900611958316846;0.2858007242436886;188.0;0.0
1.2278847362712113;-0.5536299365014005;0.9788732394366196;-0.2561667096820696;0.2777036506807787;200.0;0.0
2.791159081585969;-0.7797544088147847;0.5205479452054794;-0.181159085371714;0.7937076763768974;304.0;0.0
1.2205010424289138;-0.6013580520614701;1.03125;-0.1678662148343528;0.274716927021874;193.0;0.0
1.8275535763171968;-1.2203832869132096;0.981981981981982;-0.3474547507769883;0.5043537031371699;141.0;0.0
2.1291652586827103;-0.4740411425576157;0.9866666666666668;-0.2489591497740113;0.4076080576355291;206.0;0.0
2.0368204598182937;0.453060286423197;0.4827586206896552;-0.1835713606476678;0.4181031242400501;203.0;0.0
1.209441474857368;-0.5600717360405132;0.9864864864864864;-0.2886488989375029;0.2703198053153248;197.0;0.0
1.699847469818072;-0.4933271087066799;0.9940828402366864;-0.1537893117722623;0.2542136972147542;240.0;0.0
1.9634515622930249;-0.2636574735873641;1.034965034965035;-0.0557059564363267;0.2792150369290731;227.0;0.0
1.7296116559685744;0.0655580989734861;1.0426829268292683;-0.2359332561443774;0.3344232707823074;215.0;0.0
0.9125792939240992;-0.3790570383639903;1.0123456790123455;-0.2686668628435718;0.1479945060791048;218.0;0.0
1.8953434059459653;-1.2962580499581209;0.4841628959276018;-0.3640869960765034;0.4906904162146581;154.0;0.0
1.8185471302855127;-0.513279362075754;1.0;-0.2362418621143425;0.284732956088469;241.0;0.0
1.2570151544737704;-0.4914321608040202;0.9594594594594594;-0.2222530354226318;0.2980944132024461;165.0;0.0
2.0745263939019107;-0.54825781146996;0.3708333333333333;-0.2602688804963489;0.4918931080749598;167.0;0.0
2.57444612598228;-0.4031685578124182;1.0276497695852536;-0.0444121686650652;0.6315598033628896;229.0;0.0
1.561290071600584;-0.5695111618768505;1.0333333333333334;-0.197928817814542;0.2364462305878543;249.0;0.0
1.6648058583550949;-0.6004587922401425;0.96;-0.2087145440449105;0.2538792959937457;240.0;0.0
1.7315106669816407;-0.4689957910314601;0.958974358974359;-0.1780810057112174;0.2437354421636536;240.0;0.0
2.010141565834324;-1.2719636528191969;0.9821428571428572;-0.3129935754209112;0.5158964811089181;153.0;0.0
1.284279470632685;-0.5247610617200504;1.0218978102189782;-0.2564726898332017;0.2662329430293194;198.0;0.0
2.0203091726045432;-0.4084852428968817;1.0802469135802468;-0.1940828361552926;0.3393771755489383;290.0;0.0
2.04046839799647;-0.9606544527182362;1.0377358490566038;-0.2192290672820129;0.4917623581987248;151.0;0.0
1.9174005002205523;-0.4505475520973742;0.9161676646706588;-0.22099036378089;0.431601229111659;186.0;0.0
1.3484941315681596;-0.4486575469936275;1.0;-0.0596239455932499;0.281877644953566;197.0;0.0
1.0721405504316204;-0.4614308740160698;0.9570552147239264;-0.3150222668578174;0.1835609958641063;228.0;0.0
2.074638378423959;-0.5189255585176629;1.089171974522293;-0.180146481436959;0.4357742380136818;165.0;0.0
2.145523070002996;-0.9435120789777416;1.0267857142857142;-0.1218145866592697;0.4687376933879756;154.0;0.0
1.4564478814835269;-0.612383135884611;0.9700598802395208;-0.2593890733606643;0.2223997947087755;269.0;0.0
1.8453748874456728;-0.3750573562834309;1.047337278106509;-0.1853894351694938;0.2715050865931218;236.0;0.0
1.1691525462381622;-0.3221621429232276;1.3801652892561984;-0.2761229133393459;0.1789264673078112;230.0;0.0
1.6574825355797174;-0.5019583584370665;0.9657142857142856;-0.263336597223373;0.2601784169172379;246.0;0.0
1.435492792633995;-0.4078524844633595;0.9071428571428573;-0.2809217956521468;0.23643227549814;208.0;0.0
1.8073483317928507;-0.4731955967159982;1.0411764705882354;-0.1881198022896822;0.266051300529367;227.0;0.0
1.5427988255231095;-0.5818354480399862;1.022857142857143;-0.223065414851983;0.2371950589744248;256.0;0.0
1.2009842687605137;-0.3003380489392664;0.9693251533742332;-0.1597297887936102;0.1906313734148913;216.0;0.0
1.2631721027746845;-0.5952643903717398;1.0;-0.1309839310949079;0.2862175642278176;208.0;0.0
2.613818372694801;-1.2838856945235189;1.0528846153846154;-0.2769963785525918;0.7205610815980827;310.0;0.0
1.1820501490729582;-0.3931887072438685;1.031055900621118;-0.2824443502459601;0.1904696622340488;217.0;0.0
1.8954953046975247;-0.3797678557307076;1.0571428571428572;-0.1540861701368837;0.2665287714264303;240.0;0.0
1.209321662870316;-0.470258147771764;0.9517241379310344;-0.2262038919473026;0.253040924948165;200.0;0.0
1.0263521978500392;-0.3496086972040032;1.0;-0.2850759589266267;0.1737326307937993;218.0;0.0
1.0005534999687593;-0.38336084789603;1.0064102564102564;-0.2516762077495736;0.1570694186408284;231.0;0.0
1.1183294340975056;-0.6132953315665913;1.0202702702702702;-0.3456380484141314;0.2612425300740114;210.0;0.0
1.5674322337534912;-0.3483167626361918;1.0060240963855422;-0.244974399315033;0.1493626714438425;231.0;0.0
2.0727241664121205;-0.3844599245495919;1.0179640718562877;-0.1560912450954376;0.3886580836150839;227.0;0.0
1.798505645593563;-0.3942437569380321;1.0179640718562877;-0.1757622370156965;0.2600673502455327;235.0;0.0
1.994137913426402;0.2197996511019789;1.1474358974358974;-0.1552882463780126;0.360367404235587;198.0;0.0
0.8061221716251445;-0.4656073823201603;0.9933774834437086;-0.3375562415029378;0.1401378810908089;228.0;0.0
1.2453109896512116;-0.343634792328262;0.9722222222222222;-0.1284583087100172;0.2353266465227254;199.0;0.0
0.8264628506436211;-0.9196588342117952;1.0289017341040465;-0.6043904419938548;0.2067902952679488;239.0;0.0
0.8660573927509694;-0.3811087821143793;0.9746835443037974;-0.2260823640030667;0.1324083000163888;213.0;0.0
1.8372726269163029;-0.4305931164638631;0.99438202247191;-0.2438936269324408;0.3744798146853476;230.0;0.0
1.7370410275188446;-0.6071457018992594;0.9945652173913044;-0.2505789254318104;0.2562373521544864;254.0;0.0
1.7859320463431625;-0.3256329892936463;1.0520231213872833;0.0242241783877806;0.2428102621704554;244.0;0.0
1.2022596412388298;-0.3356367402816554;0.9935483870967742;-0.2227869917028609;0.1698036904689614;216.0;0.0
1.8188883757405536;-0.471947357908491;0.9772727272727272;-0.2393302899567305;0.2838894334787411;235.0;0.0
0.9694564994003584;-0.7641968357170293;1.0444444444444445;-0.3710823665321605;0.2553862294677803;195.0;0.0
2.3950150013723945;-0.8106480593386178;1.02803738317757;-0.0362293488260174;0.5628767506901526;154.0;0.0
1.229033062941875;-0.5042410199907376;1.0344827586206895;-0.2152643279591858;0.2546909712098365;199.0;0.0
1.2165402949850574;-0.5330834747717212;1.7325581395348837;-0.2676036603077286;0.259114787904749;196.0;0.0
1.270060915787289;-0.6189479812221317;0.9854014598540146;-0.0462900433731037;0.2734962324649657;197.0;0.0
1.0460380885723255;-0.3519837684338996;0.9461077844311376;-0.2595781799657439;0.154909423803409;234.0;0.0
1.4449406310138169;-0.2790360825168155;1.0142857142857142;0.0736587898737686;0.2937063134596548;187.0;0.0
1.192257011718851;-0.5038228733215825;0.993103448275862;-0.2543229134445077;0.248651031230734;202.0;0.0
2.3491434913404845;-0.6400449053868258;1.0514018691588785;-0.2862953662294856;0.6423606023889789;304.0;0.0
1.4374533921205084;-0.3728701437429553;1.083969465648855;-0.2284630563434417;0.2499004567947838;190.0;0.0
0.8861857586829347;-0.4435185292675114;1.0060240963855422;-0.297212716847046;0.1590873855712893;226.0;0.0
0.8958732815740368;-0.4944656864996853;1.4285714285714286;-0.3756539103359803;0.1598559586817035;228.0;0.0
1.1409687278729117;-0.3370820591099365;1.019108280254777;-0.2980961141010724;0.1706548760826138;222.0;0.0
1.670124897426239;-0.5996294195448187;1.0451977401129944;-0.2508239366195152;0.2568117811412221;235.0;0.0
1.4787673552339418;-0.6095375618347385;0.9664804469273744;-0.2522188988613206;0.2359232885612897;244.0;0.0
1.685734426943606;-0.3874866101035497;0.9825581395348836;-0.2272647083785606;0.2623636751551688;238.0;0.0
1.1269697622349084;-0.6648279594676232;0.9927536231884058;-0.1978298621730128;0.2998822280939307;184.0;0.0
1.246403750506666;-0.536433987801077;0.952054794520548;-0.2755648459408022;0.2692817526556211;198.0;0.0
1.230154102173406;-0.4918141846555676;0.9867549668874172;-0.2327024344847512;0.2487693204595641;204.0;0.0
1.7174881757641032;-0.5635645542466381;0.9763313609467456;-0.2790189446077379;0.2627697562101815;240.0;0.0
1.1672350709137498;-0.402956908223461;0.9820359281437124;-0.2800865684153904;0.1905427742179009;234.0;0.0
1.948681715844319;-1.2642825968723173;0.502262443438914;-0.2351103578670214;0.5532224892704597;152.0;0.0
1.6261282521751472;-0.4211990633771025;1.04;-0.2539938998580044;0.2478170581242948;244.0;0.0
1.3481805759999523;-0.4578738141578478;1.0212765957446808;-0.1521781120443987;0.2704572643366621;198.0;0.0
1.524671061345117;-0.6013182400421715;0.9358288770053476;-0.234291341925537;0.2483870835310798;236.0;0.0
1.0848663175025015;-0.7405344772883832;0.9791666666666666;-0.2876820786771597;0.2831610434639938;196.0;0.0
3.0415539715185225;0.0081350149069117;1.0232558139534884;0.0693735686136693;0.4591970957086992;196.0;0.0
1.2529643475098309;-0.5602147603787756;0.992063492063492;-0.0170764590415869;0.2831506266703217;174.0;0.0
1.6194425492898894;-0.5484578314679066;1.0123456790123455;-0.2591063412057949;0.2347580090954941;266.0;0.0
0.7951855209891655;-0.56680566084706;1.0206896551724138;-0.4242201322979039;0.1672941878112251;206.0;0.0
1.6361078472501638;-0.4903616032044687;1.0;-0.3954316936200917;0.2747869046258103;252.0;0.0
1.7347223777113348;-0.4283808537883548;1.0063291139240509;-0.2166152338082327;0.2681244963078441;224.0;0.0
1.32810992295063;-0.6007083309699269;0.9882352941176472;-0.2551127302551499;0.2177104543462906;257.0;0.0
1.8293233010956067;-0.4748398888008447;0.9771428571428572;-0.218916907277594;0.260702428419543;254.0;0.0
1.6861940262275006;-0.4884518074170011;0.9653179190751444;-0.2089076900090587;0.2570275324239814;238.0;0.0
1.5674322337534912;-0.3881845426801406;1.2222222222222223;-0.2749757316452817;0.1666186597889145;222.0;0.0
1.1973049633338684;-0.5619055365257941;0.9863945578231292;-0.1175756841021574;0.2895382743864934;172.0;0.0
1.0136577915626108;-0.7233639988392654;0.9727891156462584;-0.2906502382606923;0.2806446974257364;177.0;0.0
1.7816382740971457;-0.5683558405308504;1.010989010989011;-0.2829845163069369;0.2717594451372957;231.0;0.0
1.4675553194756925;-0.5355302233884474;0.9608938547486032;-0.290265362116913;0.2380643600485184;256.0;0.0
2.2169258047303244;-0.9009939274652184;0.981981981981982;-0.0018197256532803;0.5066840448804812;156.0;0.0
1.5504163807627722;-0.4967006629267879;1.0451977401129944;-0.212913305667315;0.240359178849299;244.0;0.0
1.7540372044040855;-0.4543018591047926;0.9176470588235294;-0.2400731895476907;0.2706360692562377;249.0;0.0
1.6689995375673037;-0.4633849022919187;1.011111111111111;-0.1722140280676762;0.2351036044174222;239.0;0.0
0.9565584537002132;-0.3680027299611113;0.961038961038961;-0.2471988746402336;0.145938253474049;226.0;0.0
1.2987976272525754;-0.4322279767426812;0.98;-0.1727454157214193;0.2676551233160651;202.0;0.0
1.6896511742257427;-0.3145251773877332;0.974025974025974;-0.1393742972497306;0.2971270082076901;219.0;0.0
1.2153330163849876;-0.960660171735449;0.949438202247191;-0.6070201282170322;0.231430485845498;255.0;0.0
1.2699864120482915;-0.4730256176607422;1.0068493150684932;-0.1992888903997185;0.2589874993526435;197.0;0.0
1.1133755459091736;-0.4885371841498483;0.9801324503311258;-0.2424698587322432;0.2450742951103633;206.0;0.0
1.993261356850792;-1.0287860385751415;0.9732142857142856;-0.1576770548399839;0.4848428639553281;143.0;0.0
1.6484381777901802;-0.5364902999859118;1.0;-0.1603314508032329;0.2490644247203836;244.0;0.0
1.2337596646352609;-0.4815653671767669;0.9788732394366196;-0.2186413780811663;0.2673607535678741;193.0;0.0
1.7595377341836866;0.0180656844072424;1.0;-0.2770187701946164;0.3473017833488184;220.0;0.0
1.6187660431251218;-0.6315861820582731;0.988826815642458;-0.3447852069742183;0.2576412872763926;241.0;0.0
1.313459003590503;-0.5302337445788466;1.041958041958042;-0.3249331309678871;0.2382514275424372;175.0;0.0
1.1929528116390256;-0.5311444589992339;0.9931506849315068;-0.283602876723705;0.2509316073925982;198.0;0.0
1.0628352354196482;-0.4039919857734745;1.0460526315789471;-0.2959474713005449;0.164670671526484;214.0;0.0
1.9095638087248048;-0.7929344504499547;0.9814814814814816;-0.0098938450029041;0.4432853500127853;151.0;0.0
0.8398506932607122;-0.1785848820770011;0.9691358024691358;-0.1843548241351423;0.1426311323883903;194.0;0.0
1.7669426367861647;-0.4067620988876668;1.0;-0.1650578083696994;0.2660385664187774;244.0;0.0
1.1408017416095793;-0.4767935854690714;0.9302325581395348;-0.3575583606330136;0.1955455637795801;238.0;0.0
1.3999650125724363;-0.6445895918029656;1.0217391304347827;-0.2595391194447916;0.2295544957686164;251.0;0.0
1.61488675422351;-0.2188471293539329;1.0266666666666666;-0.2531842939226006;0.2455028771162939;266.0;0.0
1.988102748762744;-0.3429885003551183;1.5344827586206895;-0.1376590365834144;0.3511580651541974;222.0;0.0
1.8090292675636404;-0.5480260413952848;1.04093567251462;-0.3244426985100069;0.2669927139561505;237.0;0.0
1.909177902105448;-0.4477974815411366;1.0344827586206895;-0.2378898187299959;0.27976082564528;239.0;0.0
2.112893561563668;-1.2307214618608309;0.5714285714285714;-0.2762305017754196;0.5567927085444965;146.0;0.0
1.6355784868497942;-0.5037377335737367;0.9456521739130436;-0.3135608157381953;0.2701666662730027;255.0;0.0
1.787557025958855;-0.550162562245573;1.0;-0.2884776438428379;0.2793928803211845;240.0;0.0
2.1254990327937096;-0.4426595060366531;1.0;-0.21104820879099;0.4037761293872242;237.0;0.0
1.2161875325189568;-0.5367888102141185;1.4577464788732395;-0.2502876928023223;0.2679308227612732;197.0;0.0
1.232155681429163;-0.552308426051953;0.9927007299270072;-0.1064307178730226;0.2906087454799641;186.0;0.0
1.6937840067408525;-0.4338111099324305;1.0662251655629138;-0.105324600775796;0.2395517336277756;242.0;0.0
1.2477988953803223;-0.5898849865746023;1.0381679389312977;-0.0567603052643815;0.2746421717638012;189.0;0.0
1.0210740111399292;-0.4772559091747496;0.9825581395348836;-0.2832855621990727;0.1740678076504383;212.0;0.0
1.6688627881771267;-0.5123651857654098;1.0168539325842696;-0.3186165547481068;0.2588090551414436;260.0;0.0
1.118003149447389;-0.7126903915225072;0.9787234042553192;-0.3011095437142788;0.3352428003045097;196.0;0.0
1.5329804874651924;-0.5410210026171367;0.9659090909090908;-0.2710129557631582;0.2429415996081269;264.0;0.0
2.039553637783152;0.2013903686458156;1.0602409638554218;-0.0573025601549692;0.3512470090844195;207.0;0.0
0.9917808392807091;-0.5494978627448747;0.9821428571428572;-0.3512884076047329;0.1761301409808063;224.0;0.0
1.7425000282142975;-0.4115013431678122;1.5;-0.2427391586752852;0.3912419555042086;186.0;0.0
1.0900430346292622;-0.5996080565905395;0.9712230215827338;-0.2242515359950284;0.2847121567380655;193.0;0.0
1.4987046194770874;-0.3772961074935748;0.9333333333333332;-0.1380457019704132;0.2487990114048575;189.0;0.0
1.7970682198417467;-0.4601717527548279;0.9606741573033708;-0.1838874590583533;0.2558634943146684;256.0;0.0
1.821308754658363;-0.4456918759608055;0.9939024390243902;-0.1723026747810042;0.2827940048493708;230.0;0.0
0.7694384306463067;-0.484455474087231;1.0;-0.3617990026890226;0.1386605907268457;215.0;0.0
1.9439214265888944;-0.4247021281573919;1.0186335403726707;-0.1758424155442876;0.3011107138603934;221.0;0.0
1.0868013536511425;-0.5620861880481202;1.0068027210884354;-0.2933215531791363;0.2540364067133525;207.0;0.0
1.0808667956598337;-0.363237072498388;1.0320512820512822;-0.2781190087251859;0.1634262793928151;219.0;0.0
1.531096431480487;-0.2648600858250701;0.9391891891891893;-0.0919585029924786;0.2247402815673828;198.0;0.0
2.33353441234512;-0.343398180759692;1.0514285714285714;-0.144787292751408;0.4240042027669157;225.0;0.0
1.4756184774020913;-0.6630309525339054;0.9417989417989416;-0.2480606417970218;0.2405798464493245;246.0;0.0
1.876296163839421;-0.4776145575805209;1.0232558139534884;-0.2068399461372716;0.2593303776409312;246.0;0.0
2.16285159775704;-0.4295415192633247;0.9938650306748468;-0.2620801001293083;0.432230130666798;207.0;0.0
1.74166343373934;-0.4099536863387636;1.0116279069767442;-0.1881958837160155;0.2644624543041054;229.0;0.0
0.9467450967077936;-0.7558594343748545;0.946969696969697;-0.2726744018846452;0.2961774830708163;176.0;0.0
1.246536501140956;-0.4311476486945689;1.0;-0.0090406248635043;0.2734176764156624;164.0;0.0
2.605479463371177;-1.0922306620626112;1.0272727272727271;-0.5487509627832264;0.8782751215337409;242.0;0.0
0.919117640566864;-0.4380847358846722;0.9813664596273292;-0.3095128623663434;0.1473032710982195;230.0;0.0
1.78771133060661;-0.3858448158229088;1.0170454545454546;-0.1555127375995523;0.2539991396063711;243.0;0.0
1.244711667882452;-0.5629027844262121;1.0352112676056338;-0.2762224310829833;0.274234023961034;202.0;0.0
2.1469074412442737;-0.5311578141401189;0.9444444444444444;-0.2356687480379833;0.4026433331202665;262.0;0.0
1.487410564782215;-0.608716829215836;0.988950276243094;-0.2386897393783684;0.2334464030148183;242.0;0.0
1.0495583712223864;-0.3442680265391713;1.1216216216216215;-0.2563160119602432;0.160320843695381;211.0;0.0
1.1556913648317608;-0.3160650196250842;0.9875;-0.2674577100278935;0.1718937254572547;228.0;0.0
2.0088127425257785;-0.4807882525270753;1.019108280254777;-0.2750254089017411;0.3931123895335021;230.0;0.0
1.2576806402829406;-0.4168271054175169;0.6815642458100558;-0.2682039140083627;0.2068208236944221;226.0;0.0
0.8133295507835718;-0.4951498889740441;0.975609756097561;-0.3918386905338952;0.1606394982779473;229.0;0.0
1.6842800529366189;-0.4341811191449901;1.606060606060606;-0.2067784239691251;0.3555659600637777;221.0;0.0
1.2140003760595277;-0.4273198375827926;0.9215686274509804;-0.1906514805366206;0.2369777486763199;203.0;0.0
1.1817436603253966;-0.293379778728515;1.070063694267516;-0.2238895772901532;0.1682225535252715;234.0;0.0
1.77355670173629;-0.3338520195537265;0.9937106918238994;-0.086381218084188;0.2628046141394933;234.0;0.0
2.2439829068683994;-0.4263803289287862;1.031055900621118;-0.1837263804967482;0.3763065378198093;267.0;0.0
0.8582906853101108;-0.5528977545825382;1.0318471337579618;-0.4196659415188414;0.189842322165348;224.0;0.0
1.4022335775515211;-0.5871558514774742;1.089385474860335;-0.301590062287112;0.2398304993066517;246.0;0.0
2.053353409797632;-0.973509294648329;1.036697247706422;-0.1691968569085502;0.49883729173065;135.0;0.0
0.9759004014689328;-0.4661387338564454;1.018987341772152;-0.3482564481387924;0.1763837040133773;215.0;0.0
2.0032532471102864;-1.0058666361844335;1.0;-0.2107888015734753;0.4559891327438167;151.0;0.0
2.1096013042596646;-0.4319890756177669;1.0333333333333334;-0.1615672059840278;0.3980535263265106;206.0;0.0
1.1288021379690865;-0.5674856777496179;0.9856115107913668;-0.3015511956707097;0.2374830158426042;197.0;0.0
2.2137740343750982;-0.7968360250563659;0.990909090909091;-0.1541501680140868;0.4953027064796433;153.0;0.0
1.8500302936544355;-0.3606331372879439;1.3184713375796178;-0.2001979848012649;0.3492095824030701;248.0;0.0
1.272028944133974;-0.413644064244539;1.0344827586206895;-0.18296677802886;0.2517727627270415;211.0;0.0
0.998992925368074;-0.3996067300751772;0.9761904761904762;-0.2967389532059708;0.158580711186418;235.0;0.0
1.1309722796575914;-0.2964864178443072;1.0378709389873213;-0.1978078866836657;0.1627347123425917;224.0;0.0
1.2757723667454;-0.5356612721268685;0.984375;-0.2953505416036055;0.2196959119309106;235.0;0.0
1.289271024127378;-0.6599050736615087;0.9765625;-0.1194657862605855;0.2870358723026691;177.0;0.0
1.161557060038052;-0.404243639349828;0.9935897435897436;-0.2805159542618398;0.1950545357910801;228.0;0.0
0.9455644344609948;-0.3733773778468053;1.0254777070063694;-0.2471558513015812;0.1432319246845176;218.0;0.0
1.086124290017591;-0.3660605446701305;0.987878787878788;-0.3252792331514281;0.1710591103330768;229.0;0.0
1.7026401552981618;-1.3934629183664284;0.9910714285714286;-0.5651550244031648;0.4689443954242849;156.0;0.0
0.9973634266107312;-0.3992842979317484;1.21301775147929;-0.353733182184704;0.1802817666992938;223.0;0.0
0.6396425237867421;-0.2584629014585921;0.9407894736842104;0.0576145176102074;0.1298300629369806;206.0;1.0
0.8189469166011524;-0.3207487448463565;1.0134228187919463;0.0394839788873877;0.1627312769502614;200.0;1.0
0.5458553484352447;-0.5546086518393943;1.0068027210884354;-0.1942928496160801;0.1298097862591136;360.0;1.0
1.6881284284474327;-0.4037634998128683;1.035294117647059;-0.2067052189311184;0.2940159949649064;246.0;1.0
0.601687947355358;-0.4282527906027863;0.6808510638297872;-0.3071435257622361;0.1859006741410366;207.0;1.0
0.3029178638664827;-0.5193484161505125;1.0431654676258992;-0.1980371513994896;0.1272596538201245;194.0;1.0
0.2107944057883791;-0.6857779427055705;0.3846153846153846;-0.2973758679119783;0.0978554264206155;359.0;1.0
0.5693025925354231;-0.6218264338432686;0.4010554089709762;-0.2468436706348016;0.1607589294413525;198.0;1.0
0.4486827096369082;-0.6748271306454953;0.3557692307692308;-0.250460139475532;0.1553689034607075;210.0;1.0
0.3869698401729475;-0.5767376640367061;0.4108761329305136;-0.2622284067035208;0.1170251790793057;349.0;1.0
0.5946700479307999;-0.5035876445594808;1.0;-0.0972832250033505;0.1475843581022685;198.0;1.0
0.6478738670379928;-0.610747595613966;1.0;-0.1847476634607966;0.1633518621330908;200.0;1.0
0.1937104789770751;-0.2937776608144398;0.3977591036414565;-0.0361018541101572;0.0930616554153806;197.0;1.0
1.7331731232182466;-0.7199559072220564;1.1257142857142857;-0.6508763027376904;0.3701262701737592;248.0;1.0
2.3515670119606464;-0.7124145178174905;0.9818181818181818;-0.1362069622633392;0.4888055239083747;149.0;1.0
0.8782433865570275;-0.2090530238137248;1.1225806451612903;-0.2304377273074522;0.1663403788448967;211.0;1.0
0.945691137522798;-0.3802043379838224;1.251968503937008;-0.0286929677335795;0.1822425306493348;181.0;1.0
0.4900822513966335;-0.3627232409460655;0.3788659793814433;-0.0644191592027549;0.1315512713453396;205.0;1.0
0.5514915363279146;-0.5573236950943117;0.9448275862068966;-0.1658925817906962;0.1578210014497267;207.0;1.0
0.8014018775186288;-0.3261832729108991;0.993421052631579;0.0325711021329083;0.1517030796726897;205.0;1.0
0.6526302272551547;-0.5209989076260457;0.3094262295081967;-0.0887261854464818;0.1586755897651551;207.0;1.0
0.830150120533291;-0.4319548757460244;1.0408163265306123;-0.0048368851236106;0.166148924213808;206.0;1.0
1.7862587143648552;0.1231514887009755;1.1239669421487604;0.1331849425535377;0.2660513876909481;167.0;1.0
0.4030734256607181;-0.5246232230071356;0.4164305949008499;-0.2110241860991827;0.1136238407370717;358.0;1.0
0.3898277251962952;-0.6143215381136391;0.3837837837837838;-0.2338204622010408;0.1481323168184401;205.0;1.0
0.626779854393865;-0.4756788771317288;1.0283687943262412;-0.0392607592263889;0.1492869278307535;200.0;1.0
0.3861438456631457;-0.474728593870897;0.3714285714285714;-0.1170385237273547;0.1238000510092342;199.0;1.0
0.1905023703435593;-0.2694543731449482;0.9074074074074074;-0.2568795731831987;0.1005769677992825;186.0;1.0
0.6992905158313256;-0.3933650034161121;1.0069444444444444;-0.0624742795030015;0.1589523696931343;196.0;1.0
0.8005621082363363;-0.3893322914993214;0.9121621621621622;0.0533128958858323;0.1611810395205077;203.0;1.0
0.5131494323049594;-0.5113908226473821;1.0198675496688745;-0.151670412751848;0.1450405496149387;207.0;1.0
0.5921198924474984;-0.5326209009975744;1.0068493150684932;-0.122719497663024;0.1480463314309916;209.0;1.0
0.5018612270127689;-0.4821312479691644;0.9933774834437086;-0.1112715461871916;0.1461946138769418;210.0;1.0
0.6041916976794925;-0.5047466006949887;0.7992047713717694;-0.153867672094438;0.1543188486122167;198.0;1.0
0.3579518307173304;-0.5841884517639533;0.4104683195592286;-0.2180918201079684;0.1443619444878332;209.0;1.0
0.2915808319438167;-0.5398338000408193;0.9183673469387756;-0.2380053285735761;0.1265592683920737;207.0;1.0
0.2547418739367013;-0.6653854444787278;0.3915343915343915;-0.3220821724219338;0.1399361896254203;205.0;1.0
0.7053057831438315;-0.5156377245389919;1.0486111111111112;-0.1258494640263197;0.1567773474435322;199.0;1.0
0.7150992370146596;-0.4629554519413604;0.4180790960451977;-0.1079131558610762;0.1504025595103412;212.0;1.0
0.3764933999261515;-0.4456620607989782;0.93006993006993;-0.1046085254121328;0.1245903537867739;202.0;1.0
0.4730476087675335;-0.6616277864222582;1.3065693430656935;-0.2859512672511883;0.1513985325049778;207.0;1.0
0.4855317139694829;-0.4999150938969591;0.3712871287128713;-0.1584905022685517;0.1300254413007802;323.0;1.0
0.748512445101434;-0.372988637842535;0.993103448275862;0.0311684475808628;0.1529384095464163;196.0;1.0
0.6130728313191518;-0.6530451895173971;0.9735099337748344;-0.2331412787395322;0.1302535366387859;363.0;1.0
0.5099335319034596;-0.6052980373012307;1.0205479452054795;-0.2154615977152935;0.1519902328518514;207.0;1.0
0.518618601368493;-0.4245718776261856;0.3803191489361702;-0.005657729050005;0.1418630581647099;204.0;1.0
0.8466375004402509;-0.2998899688258311;0.9333333333333332;-0.1367585912597112;0.1740929874424442;214.0;1.0
0.630369824691656;-0.1519516177246028;1.826086956521739;-0.1498580045823006;0.1127674765612465;205.0;1.0
0.2619083934281925;-0.3435681545261011;0.9290322580645162;-0.0938698244246859;0.1026623002279787;201.0;1.0
0.3020046791948555;-0.3832681614383831;0.9668874172185432;-0.1242664285901068;0.0947495543223854;351.0;1.0
0.7598411421895666;-0.3244611381404731;1.0066225165562914;0.0287389050943515;0.158033282746679;211.0;1.0
0.6547066903610148;-0.5473539265439118;0.9664429530201344;-0.139874481247779;0.1627707476688129;201.0;1.0
0.7414319429539669;-0.6009977749569311;1.7857142857142858;-0.1739125453380024;0.1801381785414824;211.0;1.0
0.4307262572933844;-0.5331526958907918;0.9724137931034482;-0.2015768900548493;0.1411376722276689;193.0;1.0
0.6162412840694372;-0.5311778683876501;0.967741935483871;-0.1280673453724277;0.1531371586815877;196.0;1.0
0.3766142043802628;-0.3351759472372737;0.7596899224806202;-0.2750331678382928;0.1664045334092075;227.0;1.0
0.2345502403950052;-0.2605467017066769;0.9121621621621622;-0.0540416688971251;0.0865458913119545;353.0;1.0
0.3280370295392059;-0.4403162503562408;0.3821989528795811;-0.1129578960718927;0.1183877511838969;193.0;1.0
0.3620285553300161;-0.5948999273440929;0.9652777777777778;-0.2490580621965393;0.1397024560976187;205.0;1.0
0.8462270375562314;-0.1525666199546109;0.9531914893617022;-0.1498995683460686;0.1845528043952048;130.0;1.0
0.7378791649675184;-0.0893606543444951;0.419811320754717;-0.1866868017829738;0.1635536061040443;198.0;1.0
0.4396074213398803;-0.6845252287366689;1.013793103448276;-0.2632572693860489;0.160677225230528;201.0;1.0
0.6032787764332058;-0.5680086123519283;1.0275862068965518;-0.1770863189437083;0.1354089471802847;331.0;1.0
0.5889052093213814;-0.5184012308782563;0.9933333333333332;-0.1288096609286255;0.1542669621325839;205.0;1.0
0.4766769774375702;-0.6455736047923177;1.0142857142857142;-0.2019858848803231;0.142036413054147;200.0;1.0
0.2528406212296793;-0.4541735995679324;1.0067567567567568;-0.1363814172472441;0.1155114847732731;198.0;1.0
0.4107524732242529;-0.7115802367677284;0.9794520547945206;-0.2563203573901659;0.1546820370139583;206.0;1.0
0.5617455588537044;-0.6190461940395796;1.0070422535211268;-0.1988893603650592;0.1647838108391877;207.0;1.0
0.5933270167948854;-0.617205704466963;0.9863945578231292;-0.1970750738876616;0.1644924847975032;205.0;1.0
0.5366988094890738;-0.5485784758277235;0.7899461400359067;-0.1654819580775099;0.1496808642879178;207.0;1.0
0.4654776834783052;-0.5178369131716315;0.987012987012987;-0.1779713427551264;0.1381569726491749;204.0;1.0
1.088828291832266;-0.4019609082185828;1.0382775119617225;-0.220963714437654;0.2266938134102228;259.0;1.0
0.4616739747016198;-0.4806633788976319;0.9738562091503268;-0.1415763996938518;0.1314540996861624;197.0;1.0
0.6861465277837486;-0.5880083462120249;0.9470198675496688;-0.1514562138773592;0.16424082125956;214.0;1.0
0.5570018684938285;-0.4294737586009792;1.034965034965035;-0.0322178089789949;0.1364520128217576;204.0;1.0
0.6279855493858796;-0.6238025273312904;1.0134228187919463;-0.1851024419202035;0.166771755787244;209.0;1.0
0.6199714242434915;-0.4928549543662633;1.0;-0.1255306117316931;0.1549684221180643;208.0;1.0
0.4527547114534167;-0.2145699973314112;1.0354609929078014;-0.1900364466676463;0.1111605322792316;184.0;1.0
0.6998342602315651;-0.4973626042591541;0.9797297297297296;-0.118089880496721;0.162367814673931;204.0;1.0
0.788102338526568;-0.4312345708397873;1.0625;-0.0384637728461538;0.158542978380218;204.0;1.0
0.5354528877933953;-0.5715462336646044;0.9864864864864864;-0.1608187806947344;0.1505133138313058;203.0;1.0
0.7807185948721866;-0.1107923876573033;0.9881656804733728;-0.1777276041797903;0.186203593448124;113.0;1.0
1.4103296171864583;-0.3039939798291884;0.9927536231884058;-0.016426019941382;0.2235583184315141;179.0;1.0
0.4112432857088491;-0.6849031900282316;1.013793103448276;-0.246439997499924;0.1324424013646042;300.0;1.0
0.2915001546246448;-0.5458536900963271;1.0335570469798658;-0.1902288190097449;0.1478942308667335;204.0;1.0
0.6781839821541905;-0.6706122022447255;1.0514705882352942;-0.2382874105769389;0.1789926720508276;204.0;1.0
1.797215187905703;-0.3724586288276162;1.2393162393162394;-0.2033169562967888;0.4061459562927641;151.0;1.0
0.5924244773176688;-0.4331952072145479;0.9210526315789472;-0.1177890441856353;0.1564105568094838;197.0;1.0
0.5884273070232906;0.5137592823008402;1.0;-0.1258980893362807;0.263446974526359;143.0;1.0
1.4590252456405677;-0.969876742684557;1.052325581395349;-0.4176025573833445;0.259960688827708;257.0;1.0
0.7177816196873492;-0.5319146941945062;1.0067567567567568;-0.064240119205553;0.1595813096312376;208.0;1.0
0.3423735707640102;-0.5230212211222006;0.9261744966442952;-0.1946504563078011;0.1194159293715986;197.0;1.0
0.7017479922967151;-0.6417667656691518;1.0136054421768708;-0.2102819677359895;0.1711275159232006;198.0;1.0
0.5007683211540528;-0.593827614969092;1.0134228187919463;-0.2311844267149481;0.1651381894623326;207.0;1.0
0.8617665546345481;-0.5214882819965522;0.9814814814814816;-0.3843027459412543;0.1580041231655259;223.0;1.0
0.4733763664479231;-0.5693433691893786;1.0;-0.2236095932963517;0.1520170675015839;208.0;1.0
0.7992549792821149;-0.15779322082079;1.0065359477124185;-0.1898351458475464;0.1523697130224133;152.0;1.0
0.6278694110084246;-0.372097745693267;0.9865771812080536;-0.0534609858890613;0.152645307404466;199.0;1.0
0.5785855087731538;-0.5017312646758522;0.9727891156462584;-0.1221530294371134;0.1416545778583142;199.0;1.0
1.0669247739929772;-0.3502791676310312;0.972027972027972;0.1267950934646448;0.1710912552410002;198.0;1.0
0.4338931265015721;-0.5523037452854029;0.986842105263158;-0.2281318039144069;0.152338098285509;212.0;1.0
0.5317123994599782;-0.4819408358810382;0.3905013192612137;-0.1584642451786386;0.1189447172044696;329.0;1.0
0.4790741770552356;-0.5428651792345724;0.9801324503311258;-0.15328667559223;0.1455851692695408;208.0;1.0
0.456906860818098;-0.5946074747783885;0.9536423841059604;-0.1959740311070979;0.1504156580579827;213.0;1.0
0.759390131006589;-0.318716610737037;0.7463503649635036;0.0750590878197648;0.1485553420149011;209.0;1.0
0.4524140833027524;-0.5593674384061083;0.9548387096774194;-0.4311865967905766;0.1861093450660173;226.0;1.0
0.7329808981882199;-0.461006510211768;0.4180790960451977;-0.052370993149716;0.1618747360020319;208.0;1.0
0.5720692786193725;-0.4960281079929503;0.9932885906040269;-0.1469149129155307;0.1430475614898047;197.0;1.0
1.5755208286648017;-0.3502295183003245;0.696;-0.1242206934363393;0.3422801900496408;134.0;1.0
0.6768684281285985;-0.5670324538220494;1.034965034965035;-0.1738855251316465;0.1889858598690474;203.0;1.0
0.7992911515000478;-0.4970646782151815;1.0202702702702702;-0.0363587294429855;0.1698469545591936;203.0;1.0
0.7283294056384418;-0.5709280387476335;1.0347222222222223;-0.1534969708067607;0.1653842862899608;200.0;1.0
0.59775331452242;-0.6224457500905284;1.0;-0.200589370449863;0.1841724301960639;204.0;1.0
1.294595825008431;-0.4253161070232823;0.9925925925925926;-0.4109971921411005;0.276559751807952;148.0;1.0
0.9237389442431496;-0.2770389935215738;1.1221374045801529;-0.0201300936616507;0.1577210723511099;229.0;1.0
0.9568715444183028;-0.4118977386354455;1.0202702702702702;0.0324012537389396;0.1713031305029843;202.0;1.0
0.5135151393287415;-0.6640901357609408;0.9867549668874172;-0.2543902377436551;0.1595729913338027;206.0;1.0
0.7449011272934514;-0.4382739457240888;1.119205298013245;-0.3700199906590232;0.1890961806074532;216.0;1.0
0.5260866253368393;-0.6743836105797705;0.9791666666666666;-0.2143933119340709;0.1595024028406976;203.0;1.0
1.0103950453656123;-0.3026864548351642;0.6180904522613065;-0.1801933017377009;0.1857975235692864;176.0;1.0
0.3171227028722906;-0.3143904111305873;1.5040650406504066;-0.2252566019609087;0.1063816084375677;165.0;1.0
1.267416573523634;-0.176557539713775;0.9047619047619048;-0.2199927590245979;0.2876552732729452;118.0;1.0
1.7645391197042992;-0.6323569631669397;1.1324503311258278;-0.5684059489465099;0.3654058358435134;239.0;1.0
0.6032034524958804;-0.5336404245834241;0.8716814159292036;-0.4543420082545025;0.2016546092786113;148.0;1.0
0.921147920259222;-0.1313422153956571;1.0125;-0.1699422371834665;0.1503366535910853;203.0;1.0
1.502549056277897;-0.0685271060949127;1.0434782608695652;-0.0667249879368208;0.2566195482968094;151.0;1.0
0.2506427109673162;-0.4559386033654528;0.935483870967742;-0.1763965181759057;0.1391007494893074;200.0;1.0
0.9518819018321883;-0.4401018243683277;1.4210526315789471;-0.136631603252253;0.1918946612322908;180.0;1.0
0.5535331346019786;-0.5770610513570759;1.0136986301369864;-0.1538608916214395;0.1510038158980595;206.0;1.0
1.5541177602395448;-0.2474460657700998;0.51953125;-0.1746020444301828;0.3516427482016086;124.0;1.0
1.0429141690277328;0.0845253750608476;0.9873417721518988;0.0211567702869818;0.1479251479643533;177.0;1.0
0.4844064528424959;-0.5287074300388452;0.9645390070921984;-0.1904565799080038;0.1608650508228088;208.0;1.0
0.8686639011274949;-0.5651147431121383;0.9133333333333332;-0.0874038303319423;0.1842950377745857;200.0;1.0
0.562227696549439;-0.6436889529324292;0.9861111111111112;-0.228671168751693;0.1642443445964384;206.0;1.0
0.5760164235743784;-0.5827423820423314;0.9342105263157896;-0.1439026537567235;0.1555110569150617;208.0;1.0
0.9148513944732772;-0.3890502597305943;0.9866666666666668;0.0141009612452103;0.1691625190348324;205.0;1.0
0.6874582814912094;-0.3407642210236511;0.993103448275862;0.0210469324445909;0.1451491212205451;198.0;1.0
0.8618637808954621;-0.4286353678813477;1.0134228187919463;-0.014765889187977;0.1677910934870326;206.0;1.0
0.2854396605382301;-0.6047583937249186;0.3785166240409207;-0.2597975109370237;0.1271264552643566;206.0;1.0
1.4741758459140173;-0.4218953106176895;1.2352941176470589;-0.2865101597472492;0.2374818084334513;270.0;1.0
0.8207673777392506;-0.2861407048106281;1.006896551724138;0.0557898460556184;0.1572988124511078;205.0;1.0
0.052261048047803;0.0016601789183622;1.146341463414634;-0.1300108744177131;0.0893891653019835;161.0;1.0
0.7641179202704054;-0.344830123294959;1.7285714285714286;0.0341794573277211;0.1556061457308638;199.0;1.0
0.5382597681622676;-0.588291571743651;1.0277777777777777;-0.2093338291310851;0.1539646720186825;212.0;1.0
0.6267652916454537;-0.4831119353757063;1.0416666666666667;-0.1128237938737204;0.1551075904652742;203.0;1.0
0.6341863631516588;-0.3090736459604606;0.9419354838709676;0.012139221499969;0.1398044897321415;202.0;1.0
0.8321896720070306;-0.3168494918709563;0.9724137931034482;0.0678869051880531;0.1533848616160593;205.0;1.0
0.602774164539828;-0.683543966122666;0.388268156424581;-0.2754389841869391;0.1643521891265208;209.0;1.0
0.658743411886636;-0.5350498928556883;0.3930348258706467;-0.1158438981007622;0.1555524044274752;193.0;1.0
1.2150026174109678;-0.2468498970979625;0.6460674157303371;0.0412793263590274;0.2014285656489679;196.0;1.0
0.8351563990347696;0.2088530779153355;0.8235294117647058;0.0253630888229719;0.1149822199238262;173.0;1.0
0.5096199160735984;-0.4145726669252454;0.8606060606060606;-0.1046068857107625;0.1457238352042202;195.0;1.0
0.5862907237599433;-0.5568107746035665;0.3945205479452054;-0.1215776701129589;0.1559927145108168;198.0;1.0
0.9126717269750096;-0.5211193788031234;1.2884615384615383;-0.1017549088784289;0.1889557990939441;200.0;1.0
1.220396539495601;-0.366052126415777;0.9651162790697676;-0.2654233195276966;0.2909066526328359;117.0;1.0
0.5023005668622618;-0.5131502287003941;1.0133333333333334;-0.2120978478676699;0.1484937619545566;206.0;1.0
0.7988025399251572;-0.4400570756717486;0.8141592920353983;-0.027846656943538;0.1675121521297976;202.0;1.0
1.3986337017520751;-0.3121531414573845;0.4337899543378995;-0.1223834845874525;0.2964270584154612;132.0;1.0
0.6782790914127793;-0.3271737843411937;0.9863945578231292;0.0218041675165136;0.1507927987019692;204.0;1.0
0.6519812744582021;-0.7288939135059787;0.3896457765667575;-0.2888017994467218;0.1834693892232025;200.0;1.0
0.5788291573895633;-0.5962831174184281;0.9797297297297296;-0.1557567893918856;0.1470858088874156;202.0;1.0
1.2974049905542482;-0.1027346786375068;1.2857142857142858;-0.0928428548731364;0.2040399158658541;207.0;1.0
0.5868563821099733;-0.5496321075793146;0.4769736842105263;-0.1647062383173357;0.1619297513270702;200.0;1.0
0.5753034773127208;-0.6021176654449215;1.0201342281879195;-0.181607487475559;0.1564327516302306;207.0;1.0
0.721740606172538;-0.4726298480530376;1.0;-0.1356580249121558;0.1612365906089132;211.0;1.0
0.2223435883360343;-0.5730167613377756;0.9867549668874172;-0.1545997411543843;0.146579943101156;206.0;1.0
0.7608909918541916;-0.4551968866628229;0.9865771812080536;-0.0540038843026806;0.1581232438127962;210.0;1.0
0.9172812216233476;-0.268984954013223;0.9452054794520548;0.1526778955739496;0.1546906474153691;201.0;1.0
0.8887996850445457;-0.3523182217559201;1.0;0.0475459533802602;0.1586585174882047;204.0;1.0
0.2622048652091064;-0.5631751635421601;1.020979020979021;-0.2414306678688063;0.1221678377156335;198.0;1.0
0.6896464363345998;-0.314150531659655;1.0277777777777777;0.0668439393866582;0.1542236482797039;203.0;1.0
0.3632023813332321;-0.5526190092943919;0.9929577464788732;-0.2217273640171994;0.1356464177887061;193.0;1.0
0.7446898390331529;-0.3563754225875661;0.948051948051948;0.0569775742634972;0.1512610036098308;211.0;1.0
0.473844731395941;-0.5894322283367854;0.9473684210526316;-0.2246283756581831;0.1489780463527656;204.0;1.0
0.759629989394705;-0.4882276226010159;0.3962765957446808;-0.0569917700081654;0.1669789475687689;194.0;1.0
0.6881028686474774;-0.5472764745458153;1.0068027210884354;-0.1606695144982733;0.1625507022369711;200.0;1.0
1.8718220919209352;-0.7794104176461081;0.9852941176470588;-0.2432861709364168;0.4304519890983184;212.0;1.0
0.8308252269856843;-0.5743963759718597;1.0448430493273542;-0.1696198644391081;0.209205193718676;266.0;1.0
0.4462763755220544;-0.5555255681556076;0.3984168865435356;-0.1533968617829017;0.1511347722850224;210.0;1.0
1.3155917907112071;-0.1221963427238345;1.0;-0.1737364512024278;0.26296755702892;141.0;1.0
0.8960585517982489;-0.3930614743377219;1.0335570469798658;0.0130689881233367;0.1718595968161434;207.0;1.0
0.2761294230431738;-0.3473676077324276;1.1666666666666667;-0.2429214572040764;0.0849140190912992;223.0;1.0
0.3541356861430443;-0.2703863958979738;0.810126582278481;-0.197976054587063;0.1265832629365928;108.0;1.0
0.4267828780050877;-0.4583449521616733;0.375;-0.080258481661049;0.1299726747425593;203.0;1.0
0.4722045031907402;-0.513381800824106;1.0472972972972974;-0.2110658624140649;0.1507222554941591;212.0;1.0
0.4979596858738228;-0.3739400319277063;1.013793103448276;-0.0872797989194369;0.1154380577911809;206.0;1.0
0.4815986494443869;-0.4850610957899459;1.0431654676258992;-0.1456001873976634;0.1303345994935015;199.0;1.0
0.237940252824683;-0.5622306322130499;0.9726027397260274;-0.1483046637666545;0.130893389928221;209.0;1.0
0.3382972852665273;-0.2670480823773526;1.265625;-0.214901170608468;0.1024440489945584;183.0;1.0
0.9637422884725828;-0.4232685885815807;0.9877300613496932;-0.329413074667216;0.1540903780845802;203.0;1.0
0.5288672037773291;-0.4088765461091103;1.7821428571428573;-0.0532354537474338;0.1752813420849567;206.0;1.0
0.7596381095784331;-0.0056150299223974;1.0182926829268293;-0.0694095396709893;0.1236433795124254;215.0;1.0
0.4663738781486177;-0.6358803790881866;0.9183673469387756;-0.2200721885921825;0.1521415108729572;207.0;1.0
0.6158191378064286;-0.3664774620218294;0.9733333333333334;-0.0055235859280138;0.1384628614791872;209.0;1.0
0.3810853449483897;-0.6032559102293517;1.0;-0.2414677351977755;0.1322583266273224;200.0;1.0
0.5551002885582624;-0.4475963921862826;0.9379310344827586;-0.0986172804746225;0.1486775032066245;208.0;1.0
0.5288115565574638;-0.3961882911348107;0.9724137931034482;-0.0003943136597856;0.1327937168329411;200.0;1.0
0.7601244304830521;-0.452348314954049;1.0205479452054795;-0.0514328339294284;0.1616282321682757;201.0;1.0
0.6295798910721744;-0.4310165101310239;0.3902439024390244;-0.0752449432675442;0.1548565492889014;196.0;1.0
0.5787180676490051;-0.6256720119427681;1.0135135135135136;-0.1716156293251302;0.1545509828464028;206.0;1.0
0.5123274726599403;-0.5786485746826919;0.3930635838150289;-0.2130079378949524;0.1513114818645983;195.0;1.0
1.0381368039105132;-0.6701852443397811;1.3414634146341464;-0.0423159468032823;0.3002869848327258;120.0;1.0
0.4234428757420166;-0.3251227104279274;1.0482758620689656;-0.0118057721484877;0.1195594276393125;213.0;1.0
0.6925470725211194;-0.0656576524322826;0.9777777777777776;-0.0516903212696833;0.0885736913402171;225.0;1.0
0.705531346038936;-0.4831859564483479;0.360381861575179;-0.064259419179557;0.1735348336212946;177.0;1.0
0.6127892183765558;-0.4317837909468586;0.9256756756756755;-0.0362415065324951;0.1443347515899823;208.0;1.0
0.9636154822917656;-0.2980182596449667;0.9508928571428572;-0.2508544280620107;0.2630562496281475;136.0;1.0
1.0203811324097072;-0.4470806529242579;1.4766355140186915;-0.3034858888146178;0.168477904060947;217.0;1.0
0.6601624393696666;-0.6533319048362342;1.0466666666666666;-0.2318998054653217;0.1704359791000782;211.0;1.0
0.9407440848133656;-0.3694256345041807;1.0486111111111112;-0.1797341960490456;0.2038450632007739;195.0;1.0
0.6450956491883522;-0.0600028619800798;1.0;-0.0637967208422362;0.0927532166753962;230.0;1.0
0.5502476184973224;-0.5701078902375898;1.027972027972028;-0.1784863346042229;0.1577786842592034;206.0;1.0
1.7918495464910822;-0.350468220290592;1.817073170731708;-0.3505296875803367;0.3681299602116379;262.0;1.0
1.0686138634772815;-0.3370141552543307;1.4785714285714286;-0.1646542230079371;0.2028240929242435;242.0;1.0
0.4091312622593297;-0.5078256472711042;1.021868787276342;-0.1975842280072468;0.1293522009097039;202.0;1.0
0.5862179219132653;-0.591512775849886;1.0201342281879195;-0.2001179705824725;0.1544995456735499;200.0;1.0
0.8418384925264478;-0.4297839801037434;0.9748427672955976;-0.3362063372682694;0.1485076104297957;219.0;1.0
0.4656298478860934;-0.4529003685843357;0.4311377245508982;-0.0537757569002262;0.1325019509787393;200.0;1.0
0.4282277167417656;-0.3470077536674908;0.912751677852349;0.0142254041133502;0.1285124795699992;205.0;1.0
0.473995159400846;-0.6743723396684763;0.9805194805194806;-0.2677525422360369;0.161837604239218;209.0;1.0
0.5344410337283813;-0.3807625139801166;1.8;-0.2166391155351232;0.1267257311460702;187.0;1.0
0.278605189033588;-0.5702406362081338;1.006896551724138;-0.2386774279433404;0.1427886377775155;202.0;1.0
0.6836005383938156;-0.511219508723022;1.006993006993007;-0.1315108566002931;0.168702699757644;205.0;1.0
0.3456529982448919;-0.4129154322305726;1.065217391304348;-0.0863417932655594;0.1254431235754173;203.0;1.0
0.6049673268243998;-0.6173683675313187;0.9866666666666668;-0.1981432065248284;0.1627332134903941;210.0;1.0
0.5995416735114292;-0.5319720854076164;0.9161290322580644;-0.1056456678418946;0.1578902840066527;211.0;1.0
0.543371771404504;-0.6001030443606814;0.9867549668874172;-0.1880728655503518;0.156055462938733;204.0;1.0
0.7094999706995752;-0.4125569615288253;1.1805555555555556;-0.4171782037285667;0.2408276743441978;108.0;1.0
0.7693168652781173;-0.0486489824832895;0.8662790697674418;-0.0547624653565949;0.1099354042065981;207.0;1.0
0.4297009391275976;-0.620697193163798;1.0205479452054795;-0.2372027653606339;0.130730985720191;358.0;1.0
0.5183391620325173;-0.3283128228824808;0.9452054794520548;-0.0307200774601378;0.1123134362484614;360.0;1.0
0.6522327483093162;-0.5268611015618618;0.9664429530201344;-0.1271347055327453;0.1594046653768482;201.0;1.0
0.8930841117645613;-0.5273150526567593;0.8468468468468469;-0.4354445184840558;0.2368695756607767;124.0;1.0
0.6954414382731968;-0.6054615958429295;1.013986013986014;-0.1462462844978919;0.1669841765703175;205.0;1.0
0.5478976824300759;-0.586590618950868;0.9452054794520548;-0.1737139547119864;0.1520789199488028;200.0;1.0
0.379904178741876;-0.5111151638684062;1.0337837837837838;-0.1670483456871571;0.1361658104250079;208.0;1.0
0.8430231673058093;-0.0268259351033243;0.6619718309859155;-0.1509582086823241;0.1893844204019596;225.0;1.0
0.5916916632025155;-0.5549412137336751;0.9527027027027029;-0.1368812852216859;0.1555626000476631;205.0;1.0
0.6759269649370406;-0.4630551560386602;1.196078431372549;-0.3070992128288827;0.2112161786828761;219.0;1.0
0.4362914313753118;-0.4824537784976203;0.9047619047619048;-0.150133534192964;0.1366580391978935;193.0;1.0
0.7171603050005603;-0.4966860792351835;1.4722222222222223;-0.0864837355958078;0.1666760006679418;201.0;1.0
1.0057791596373815;-0.414925327321259;1.0;-0.2925286803056033;0.1641384730360175;229.0;1.0
0.9235920458287884;-0.1172307539757958;0.984375;-0.1010945900300861;0.1631284185444957;132.0;1.0
0.7310051011760601;-0.6454652820529604;1.0206896551724138;-0.1735064264504009;0.1759741678267618;211.0;1.0
0.5232678765835005;-0.4305819193043638;1.0359712230215827;-0.118658730371451;0.1265928168442504;352.0;1.0
0.5760034481247384;-0.4477651724703811;0.9477124183006536;-0.1028340941068998;0.1445810597511999;198.0;1.0
0.3512377306858398;-0.2851493340156722;0.9701492537313432;-0.1778743931890075;0.0998294079427999;149.0;1.0
0.5013844243980944;-0.5840505978137446;0.9864864864864864;-0.1700061234226958;0.1477516401701636;210.0;1.0
0.6395047312029836;-0.5820387417854094;0.9867549668874172;-0.2257183515522;0.17114945224366;216.0;1.0
0.6628930836983034;-0.6050226296317527;0.8974358974358975;-0.1810728807700015;0.1651319955582857;213.0;1.0
0.3799330429019255;-0.4012861738009506;1.0205479452054795;-0.0621796809216134;0.1236655933165318;206.0;1.0
0.6677486849628631;-0.617939031649319;0.9536423841059604;-0.2334230181378493;0.1710222027848608;204.0;1.0
0.7168647577137651;-0.0982507257155566;1.6216216216216215;-0.0573361333513167;0.1335096428331745;133.0;1.0
1.2251175763495934;-0.1549534089988133;1.0223463687150838;-0.0854890793020415;0.2181218660986835;209.0;1.0
0.7552721649563592;-0.1571892692836743;1.1282051282051282;-0.1256120046931763;0.1099658878854741;222.0;1.0
0.4702815701113132;-0.5816524893598913;0.9554140127388536;-0.2131944336496256;0.1519722554205082;210.0;1.0
0.3906821562365185;-0.3539733112028527;1.0347222222222223;0.0172664411758396;0.1171700333585332;204.0;1.0
0.7759175188667462;-0.0361000483167267;0.6376811594202898;0.0066908046219986;0.0940538650807933;229.0;1.0
0.5876421819873557;-0.6116615944272286;0.986206896551724;-0.1747074969658156;0.1554822853879281;202.0;1.0
0.8895324320094607;-0.202637299025723;0.9938650306748468;-0.248100807743497;0.1842588894157181;158.0;1.0
0.755425575167041;-0.5266151440455829;1.0443037974683544;-0.0965468436799364;0.1683743856334426;195.0;1.0
0.9334978810984236;-0.3182113083481264;0.9930555555555556;0.1050010046041533;0.1664875376871381;204.0;1.0
0.58338455008739;-0.5698745048930445;0.9605263157894736;-0.179926506032334;0.1595477348249172;207.0;1.0
0.7235826366346167;-0.4139680668485248;1.7588652482269505;-0.0082811353133677;0.1529901637622931;211.0;1.0
0.4557413949024717;-0.6367771880685749;0.98;-0.2197769498504465;0.1468939613911982;203.0;1.0
1.4763266055570292;-0.2738127587368314;1.1444444444444444;-0.2361249504686316;0.3379358341900352;138.0;1.0
0.5560657120711762;-0.2779193335091635;1.0737704918032789;-0.1598176722008526;0.1136687781838968;216.0;1.0
0.7011232003462052;-0.6121575498943133;0.958904109589041;-0.1785067085328377;0.1760953036891995;200.0;1.0
0.5381577733272918;-0.3318531454486094;1.0335570469798658;0.0241825085054398;0.1264774644254009;203.0;1.0
0.4406004781672149;-0.4727430621736837;1.6214285714285714;-0.1423530342530092;0.1278682954602612;206.0;1.0
0.7405260986278546;-0.55;1.0272108843537415;-0.1405451162523023;0.167521023782114;200.0;1.0
0.7353844333627254;-0.1027305930467581;1.2946428571428572;-0.255337099882414;0.1718678186447917;239.0;1.0
0.8841290102798003;-0.4218194942046049;0.952054794520548;-0.0025725336961974;0.1948702601719051;188.0;1.0
0.5934583687568175;-0.5819269005919585;1.013793103448276;-0.1636561371018874;0.1665448766564206;200.0;1.0
0.6240643687567952;-0.5554016593036275;1.0134228187919463;-0.1764390225790263;0.1692286232500716;207.0;1.0
0.4799915392326058;-0.61504794792309;1.0;-0.199758924666431;0.1527822875556224;204.0;1.0
0.9932327085931272;-0.3159130697973176;0.9464285714285714;-0.282408153847384;0.2117696349638116;146.0;1.0
0.4530510309974412;-0.6071890529656876;0.918918918918919;-0.195330444168826;0.152339284137305;203.0;1.0
1.4125381204555016;-0.3096119574529841;0.9629629629629628;-0.2793755779981056;0.2753675516953585;156.0;1.0
0.9938501794073792;-0.4357124989440211;1.0047846889952152;-0.2652722569498094;0.2017579645799003;232.0;1.0
0.7689637536666851;-0.5810927994707278;0.5114320096269555;-0.1339312336607258;0.1768375498788537;206.0;1.0
0.7430071608013457;-0.334892813340873;0.9805194805194806;0.0627384870503445;0.1489855568443529;205.0;1.0
0.6174407984546149;-0.2862230456176882;0.9652777777777778;0.0529651090644443;0.1145854176271718;362.0;1.0
0.6166598382606104;-0.5292931071497503;1.3610503282275712;-0.135095891450016;0.1580487614026563;202.0;1.0
0.6486150057516745;-0.0713513821781401;1.0424242424242425;-0.0566859244837543;0.1226249358626821;128.0;1.0
0.5121775907819631;-0.1032935884118786;1.093167701863354;-0.1282755304414272;0.0993481470105995;209.0;1.0
0.6375270337186796;-0.3802324217479046;1.7932203389830508;0.0026993232171633;0.1486817064066048;208.0;1.0
0.5447577369034798;-0.5360366486369572;1.0068493150684932;-0.1584815993715227;0.1510285475620119;206.0;1.0
0.7857351178579475;0.0053778813460843;1.011173184357542;-0.1459975805293465;0.182831536280399;127.0;1.0
1.1805825924772972;0.032876087641784;1.8225806451612905;0.0340178855771664;0.1847054446763445;166.0;1.0
0.2923198175454011;-0.3543963963588653;0.6216216216216216;-0.3021002409374202;0.1419123321320211;212.0;1.0
1.6990014494497885;0.0929436901519812;1.0341880341880345;0.1099527552870033;0.2483772838033845;168.0;1.0
0.1070189691948617;-0.1097957722295038;1.06993006993007;-0.2373824080042317;0.2289032311492046;202.0;1.0
0.7410908178696664;-0.477058948688738;0.8940397350993378;-0.0267192447463058;0.16001366326115;208.0;1.0
0.7137313705324586;-0.5029027270234219;1.0067114093959733;-0.1271208623157116;0.193410395645444;205.0;1.0
2.7011529922683315;-0.6006145087069783;0.4841628959276018;-0.0075119928185556;0.5406706225603387;151.0;1.0
0.5892624705422332;-0.5614749481459177;0.9863013698630136;-0.1546821203868225;0.157107318639148;200.0;1.0
0.7944845705696648;-0.1613840890999887;0.4394618834080717;-0.1556629353919685;0.1204586933469208;184.0;1.0
0.3523485313449678;-0.4279705329821046;1.0068493150684932;-0.1739367060837341;0.0989391978994508;326.0;1.0
0.7570247940437477;-0.5116385466973691;0.8513513513513513;-0.1099337342622786;0.1656099978877922;204.0;1.0
0.4664580822730243;-0.430407039406313;1.0;-0.1150376592462979;0.128908048932665;195.0;1.0
0.5903030532279101;-0.5740737699496175;1.0342465753424657;-0.1505917944082954;0.1556144407210001;211.0;1.0
0.4150594563769541;-0.4017178059324592;0.913907284768212;-0.072827824203316;0.1330242642968389;198.0;1.0
1.038459811192638;-0.4634934557560128;1.007462686567164;-0.4404505131719826;0.261512745934322;141.0;1.0
1.0017217704551955;-0.0269253710441847;0.9759036144578314;-0.0723869308843756;0.1617906611572147;163.0;1.0
0.4601085930521692;-0.4516686010700989;1.006896551724138;-0.0748055313749171;0.1281021072576267;205.0;1.0
0.7304564391572418;-0.4611234145101701;1.020408163265306;-0.0152327706542683;0.1615578177643272;207.0;1.0
0.6131249948081028;-0.4957499356154224;1.006896551724138;-0.1319572189022083;0.1652622574810864;200.0;1.0
0.4097838162456811;-0.6028145490531104;1.0070422535211268;-0.2013934856317041;0.1426897864383197;199.0;1.0
0.4498648312987512;-0.5617906745054333;0.3688118811881188;-0.2118809249975089;0.1405193823674596;210.0;1.0
0.5254944877044085;-0.6004736859054509;0.9256756756756755;-0.1997811192925511;0.1500097276406703;195.0;1.0
1.0194016919233395;-0.1651025735220757;1.062240663900415;-0.1045344841795865;0.1879242527282873;141.0;1.0
1.145929478052363;-0.2947324763614264;1.1324200913242009;-0.1496527655174959;0.2223284065247179;256.0;1.0
0.8760147285685533;-0.5367284620469401;1.0377358490566038;-0.3377110237256279;0.1542680990712344;208.0;1.0
0.7446340867456444;-0.4972798637235306;1.0066225165562914;-0.0909765415953246;0.1668778685183162;205.0;1.0
0.9034230564580444;-0.2856997551889705;1.0;0.1153609760105742;0.156472788963439;202.0;1.0
0.245993607749316;-0.450353950592023;1.1327433628318584;-0.1593559748491476;0.0949602797929095;123.0;1.0
0.3662542157551747;-0.1163205944458277;1.1722222222222225;-0.1591885067000572;0.1222306578644316;167.0;1.0
0.3608860571949837;-0.0563095280953474;1.0235294117647058;-0.1741808185017978;0.156549677189202;200.0;1.0
0.6543459751914253;-0.5580558582266325;0.3879093198992443;-0.083519047769032;0.1729837669551803;204.0;1.0
1.4209142353815956;-0.1290907568906075;0.8363636363636363;-0.1138954248094191;0.2438351402588391;159.0;1.0
0.3877956028474164;-0.5550415123823995;0.9931972789115646;-0.2158403531207192;0.1399888619017498;195.0;1.0
0.4130155664630165;0.1502503729802517;0.9901477832512317;-0.0617195251480225;0.19484023889665;179.0;1.0
0.7544593284030674;-0.364191474123631;1.0;0.0130825158042128;0.1559670870206267;207.0;1.0
0.2963384589795269;-0.568959258047962;0.959731543624161;-0.2458383291429212;0.1224288895475024;203.0;1.0
0.4223538068010114;-0.3992804112669689;1.0134228187919463;-0.1067846264050367;0.126067036939537;203.0;1.0
1.3609252606097797;-0.2309916002665563;1.1531531531531531;-0.2115867435921653;0.2425326728613323;167.0;1.0
2.393955246977643;-0.9325839487340962;1.0093457943925233;-0.2923055274771442;0.5557327299233984;151.0;1.0
0.4716107103519943;-0.6557934857490106;1.0;-0.2256281558174223;0.1648843542357271;203.0;1.0
0.2788240407822637;-0.5394135345622904;1.0136054421768708;-0.2228846705137393;0.118837295979975;204.0;1.0
1.890443561669908;-1.334356644313936;0.991150442477876;-0.6772782320394777;0.547030019770253;153.0;1.0
0.4906535171644727;-0.590384111629263;0.9668874172185432;-0.1735035684757054;0.1428004491375071;211.0;1.0
0.5685575761307976;-0.3018153793215454;0.908450704225352;0.0180675543933771;0.1279674789441948;193.0;1.0
0.525797176758867;-0.4487947671502547;0.9605263157894736;-0.0890301484319321;0.1315533215713861;206.0;1.0
0.4697030006044041;-0.4941822168183444;1.4669117647058822;-0.1509701759985131;0.1386968602400468;196.0;1.0
0.7905009569229092;0.4648523882653448;1.2531645569620251;-0.1745932121033155;0.2826525447713703;233.0;1.0
1.0239730789525223;0.0965726854630451;1.8137254901960784;0.0720151425471297;0.1297667279402252;203.0;1.0
0.7129348714714756;-0.6578167046003432;0.3813953488372093;-0.172104248325194;0.2438617129683239;127.0;1.0
0.2682505368795374;-0.6440927746728882;0.9864864864864864;-0.2716889821176519;0.1336781618965451;196.0;1.0
0.4748849432257743;-0.5117990604062242;0.383248730964467;-0.1617106930782848;0.1194886390714536;321.0;1.0
0.7608587941092264;-0.5328234531759489;0.407103825136612;-0.1403319570021181;0.1764550242884743;200.0;1.0
0.7662937942701271;-0.4904565303766817;1.6277372262773722;-0.091729140617455;0.1610962439743831;207.0;1.0
0.7050260831693292;-0.436754287984514;1.0065359477124185;-0.3708498677403001;0.1948992012391821;196.0;1.0
0.9915781871927616;-0.4801272306762263;0.934131736526946;-0.3091276407914725;0.1595898594207065;218.0;1.0
0.7705631707733313;-0.436825746265628;1.025974025974026;-0.3797432152062002;0.1388886252823794;213.0;1.0
0.6381390238185841;-0.6276291908826299;0.9933333333333332;-0.2447999737041358;0.1812511756587419;202.0;1.0
0.6111973657257388;-0.5466027623099294;1.0416666666666667;-0.1682879800558541;0.1693268253986054;208.0;1.0
1.045453710140867;-0.2071147697192525;0.9876543209876544;-0.1936109522063862;0.2313017452288752;231.0;1.0
0.3731227767753798;-0.6466393796230905;0.7621832358674464;-0.2960481126427082;0.1422074657076164;211.0;1.0
0.6059036193413027;-0.3866802367116284;0.9551282051282052;-0.0436513541257011;0.1411604835959415;211.0;1.0
0.6280050758069993;-0.5016522801376122;0.4622641509433962;-0.4606219071388097;0.1783476771417122;139.0;1.0
0.7715969861655237;-0.362891433011177;0.9865771812080536;0.0105956606946859;0.153729411590537;208.0;1.0
0.620377514804844;-0.2396237681549382;1.145945945945946;-0.1869100211001908;0.19955570739049;229.0;1.0
0.7452770212691617;-0.4145049004879492;0.9801324503311258;-0.0475617310771039;0.1399660396009922;191.0;1.0
1.1946464032852309;0.0289179409039244;0.8703703703703703;0.0626842706133511;0.2030983559575942;131.0;1.0
0.9086433264328924;-0.0848116783339749;0.4365482233502538;-0.1346601763761528;0.1485078516481025;192.0;1.0
0.5889044242701237;-0.3747545850590038;1.0;-0.0545423429156678;0.1278376016359595;196.0;1.0
0.2364159937097464;-0.1904804968235018;0.959731543624161;-0.1603793435328706;0.213388193292028;196.0;1.0
0.6499789791663027;-0.4323145222583564;0.9864864864864864;-0.0827522660295314;0.1423998539225132;202.0;1.0
0.5093335066901069;-0.5178950600784782;1.0136054421768708;-0.1411107820189368;0.1362851519687898;214.0;1.0
0.6903462125365447;-0.5016578123379407;1.037924151696607;-0.0814502730486293;0.1560887440396927;201.0;1.0
0.4568082692150708;-0.6086913330103528;0.358974358974359;-0.2063892759706364;0.1452117876859363;204.0;1.0
0.4648212494375417;-0.6233054435743736;1.0;-0.2256763707856497;0.1565476507892579;202.0;1.0
0.5343063165243694;-0.595541836417069;0.9285714285714286;-0.1800063639468709;0.1434817172914403;208.0;1.0
0.7057027143718774;-0.2801972263464108;0.952054794520548;0.0674901570928296;0.1383449453214115;212.0;1.0
0.6967205252756408;-0.4279415177659417;0.4778481012658228;-0.0421358269010221;0.1610413437486277;208.0;1.0
0.4817744704648956;-0.5488654413518944;0.9675324675324676;-0.203921924733497;0.1367501060933308;206.0;1.0
0.4013539612532326;-0.6552834794222355;0.4116022099447514;-0.2353780755100436;0.1476896162494369;208.0;1.0
0.5111432364316119;-0.5972592469323756;0.9933774834437086;-0.1887729068871144;0.1550806695445315;207.0;1.0
1.5196814242545822;-0.4565435656005888;0.9675324675324676;-0.1812502385863548;0.3106267348328856;212.0;2.0
0.6597425204619439;0.6474708923489882;0.6374269005847953;-0.1847823112894655;0.4898426014965366;195.0;2.0
0.5805625699604651;0.4073000749404121;1.4166666666666667;-0.2110249693366701;0.4341211980160236;194.0;2.0
0.7269512353896009;-0.2256574235883351;0.9663865546218487;-0.2825448882007338;0.6600696679821011;163.0;2.0
0.9262100424059048;0.0327692033028474;1.375;-6.145204850769304e-05;0.5139195781198793;280.0;2.0
0.6756666573060459;0.656649941876838;1.5277777777777777;-0.1071536832384141;0.4744355375871526;174.0;2.0
2.447482144126593;-0.2521656590814763;1.0714285714285714;0.1518754885282933;0.4788177905304255;226.0;2.0
0.8613146145753109;-0.0144712033238616;1.2881355932203389;0.0016099279148572;0.5314033519817359;191.0;2.0
1.089453832588157;0.0043335713282889;0.7396449704142012;-0.2524596641180782;0.3567762719074921;189.0;2.0
1.874863629188952;-0.545136204657161;1.0916666666666666;-0.0458636433118721;0.4330541836009632;200.0;2.0
1.1289899915794446;0.0939238824365726;1.0;-0.1465415766517982;0.3451809901366844;180.0;2.0
0.9089359931628996;-0.1265843902671649;1.4567901234567902;-0.2118225699183356;0.7085172236092933;165.0;2.0
0.9662550891762632;-0.0074278443650918;1.0263157894736843;-0.0595372612196852;0.6546937012829588;167.0;2.0
0.9747034220424824;0.0474510377234977;1.6330275229357798;-0.0098943991903283;0.5925372429971933;177.0;2.0
1.1803922546313217;-1.1243328479209658;1.1666666666666667;-0.0796730001403185;0.3325742392572391;184.0;2.0
0.956964381864633;-0.2695251592277122;0.9882352941176472;-0.248785102429748;0.5692567347363928;232.0;2.0
0.0840007478177697;-0.3022943013012108;0.9126984126984128;-0.349586611800094;0.1941195158270728;183.0;2.0
0.8789425686969683;-0.0294005780370558;1.3904761904761904;-0.0959232488930004;0.6302791002974217;178.0;2.0
0.6505206704424181;-0.0363217818059754;1.649484536082474;-0.1950333047937847;0.5171174801054333;183.0;2.0
1.0149356122337023;0.0988960778203616;1.6619718309859155;0.0363638460384427;0.6468973624516015;168.0;2.0
2.357723255140271;-0.8162646891558958;1.0202702702702702;-0.2673019689392737;0.6504241474795733;207.0;2.0
1.0721092952680165;0.1099121850211959;0.9734513274336284;0.0576831900916219;0.6261948330326358;170.0;2.0
0.2337755056144229;-0.2007300343026751;0.9928057553956836;-0.2286330114879159;0.2629371460172582;143.0;2.0
0.7312947774837744;-0.0851871823846138;0.5483870967741935;-0.073105473971798;0.4493093942686018;177.0;2.0
1.4953960884861812;-1.3062380536008693;0.9834710743801652;-0.281321354888581;0.4961312200059293;112.0;2.0
1.156903302425368;-0.053134427589933;1.5591397849462365;-0.2048313258755291;0.3630387528011205;193.0;2.0
2.236141807286171;-0.5590491843229616;1.7333333333333334;-0.057507860874144;0.5133373123013957;250.0;2.0
0.8226687574271212;-0.0579920417710821;1.5267857142857142;-0.0555110207719728;0.5620281481587428;208.0;2.0
2.441861625350552;-0.7125692355566697;1.71900826446281;-0.1652630947142337;0.6001954846067596;230.0;2.0
0.857651303266498;-0.8201546990887787;1.0666666666666669;-0.0617748956006471;0.2571316400838581;161.0;2.0
1.5980471106552818;-0.7653069226376888;1.2;0.0192198490586541;0.3740158295808816;169.0;2.0
0.6200061556959777;-0.092740226494473;1.3728813559322033;-0.1518235825395918;0.4750184586414162;167.0;2.0
0.8669315948576495;-0.3198695956307986;1.3952095808383234;-0.1668555950554281;0.2375115871666409;271.0;2.0
0.5619161362835301;-0.0607711962172122;0.5969387755102041;-0.0980904087248544;0.4143235922290901;190.0;2.0
0.97731713619023;0.0290846963785843;1.2341772151898731;-0.0050163868779915;0.625760696714258;161.0;2.0
1.4275484467679902;-1.4368957919628007;1.0178571428571428;-0.2635217408036232;0.4681074910301404;159.0;2.0
0.6863641486841827;-0.1710094651505591;1.424778761061947;-0.2504334831045107;0.5896435831443987;164.0;2.0
1.4001339759827292;-1.197912127869017;0.8879310344827587;-0.2810930085160632;0.4769946340735025;135.0;2.0
0.5976179768860831;-0.1044761569783511;1.3421052631578947;-0.0870042497386817;0.4516826748341649;232.0;2.0
0.8770484116934351;-0.0072807352668868;1.018181818181818;-0.0501375638347521;0.6166723429431259;159.0;2.0
0.7212013242662489;0.6815199811402598;1.1588235294117648;-0.1218055745744969;0.5504781861434479;223.0;2.0
0.7082556536959219;0.699306593725801;1.542857142857143;-0.1030135192210789;0.4927634083124884;196.0;2.0
0.8669373608434767;-0.0686221990736342;1.5252525252525253;-0.1243831971304747;0.6107370304311118;161.0;2.0
0.7679270748318358;0.1574066849311345;1.7184466019417477;-0.0551912147079809;0.5160518482613247;178.0;2.0
1.7449045816014352;-0.6476682634185886;1.0294117647058822;-0.3080194795284069;0.3752125230592537;192.0;2.0
0.6851021788023567;-0.1473258673410842;1.475;-0.1481684184834154;0.5466966248745323;191.0;2.0
1.127985252563716;-0.7804808961354086;0.9666666666666668;-0.1215041548986559;0.3081639214788543;243.0;2.0
0.7028780566487909;-0.2390286325189447;1.4625;-0.3138249038784454;0.6438130159760352;167.0;2.0
0.2481256498910454;-0.150036402245499;0.8493975903614458;-0.2282492823320485;0.2120131309157213;177.0;2.0
0.4837419069031948;0.4753340565154803;0.9484536082474226;-0.0820677512989535;0.3415600164767838;244.0;2.0
0.6145978558020531;0.5592341953656326;1.025;-0.0642468045248328;0.4531677845916634;156.0;2.0
1.1901857588049185;0.0180456666886741;1.1468531468531469;-0.1986871069605909;0.3762965961254912;186.0;2.0
2.1882717640833285;-0.8018706023228128;1.789855072463768;-0.1959778527643412;0.514273185383878;226.0;2.0
1.938151972828973;0.1574824261291951;0.9553571428571428;0.3279936174446182;0.6850069773083147;177.0;2.0
0.9365243304329158;-0.663855343258156;0.9731543624161074;-0.1970427276052042;0.2639918222255971;227.0;2.0
1.1392004958345017;0.0832434214153265;1.553030303030303;-0.2029249471508169;0.3896785292659733;178.0;2.0
0.6691683428981623;-0.1104535606188907;1.3515625;-0.1002693555342922;0.4402931361972876;201.0;2.0
2.683042970932617;-0.7815573604789243;1.027027027027027;0.1666972958363122;0.9889379578801284;161.0;2.0
0.931996927153761;0.6575628687611592;1.286885245901639;-0.090216289641469;0.5483142687358237;206.0;2.0
0.8814615576591904;0.0144782204040534;1.6666666666666667;-0.0721626601055561;0.6137207671445634;164.0;2.0
0.8859432101005247;-0.2874763604678023;1.05;-0.2554447754910739;0.5967446681237853;221.0;2.0
1.241532376999979;0.2174550905426819;0.7894736842105263;-0.1060849631843139;0.3842165249844592;191.0;2.0
0.6040792551168087;0.5618475116623078;1.4587155963302751;-0.1164935522112754;0.4213130168559138;220.0;2.0
1.043195129215816;0.1973069689361787;1.2481751824817515;-0.3551043842261099;0.4308316002779137;191.0;2.0
1.2978052223086531;-0.5866827473904856;1.045112781954887;-0.2905159912219538;0.3178606324722337;194.0;2.0
1.136118938790307;0.0196088303782889;0.9264705882352942;-0.2389332378966342;0.3761368433018615;174.0;2.0
1.0223057886028213;0.1107104504082329;1.8144329896907216;-0.183203056911647;0.336279656767564;192.0;2.0
1.327439537831279;-0.5250211071112836;1.0185185185185186;-0.1212217971832698;0.2879747036746393;217.0;2.0
1.0302779735220142;0.0342544520165981;1.2083333333333333;0.0185262601545482;0.6320793773934705;164.0;2.0
0.745929109145545;-0.0845027028465126;1.761904761904762;-0.1383557404853836;0.5291576034810634;183.0;2.0
0.8055657540897387;-0.2320730164552831;1.4268292682926829;-0.2470878290833696;0.6351544617665281;161.0;2.0
1.044107289133836;-0.0608731575164363;1.4831460674157304;-0.2811433291168895;0.3575185481756714;183.0;2.0
0.7776425840137282;-0.0219357212913761;1.0847457627118644;-0.1136027018185597;0.5256132791230405;185.0;2.0
0.7951953555838924;-0.1942079811091878;1.0;-0.2412674534674136;0.6344935525895802;164.0;2.0
0.6710855861783668;-0.2206472946715204;0.73125;-0.109693323274713;0.4999821407775736;208.0;2.0
1.4992088399889445;-1.339622266719774;1.4324324324324325;-0.1643128281631014;0.409577363222085;163.0;2.0
0.7319614036881537;0.6346382148479183;1.5655737704918034;-0.129699622873904;0.5331583903874255;211.0;2.0
0.6836189649171188;0.6728452821664987;0.9117647058823528;-0.1058776649975262;0.567911661609256;190.0;2.0
0.4111915948004135;0.4017754855482873;0.831081081081081;-0.0955941225149524;0.4025382123564602;118.0;2.0
0.884334868275961;-0.0170210439612954;1.2567567567567568;-0.0491449088831247;0.5525333684154898;230.0;2.0
1.2109791529188716;-0.1699633229878212;1.688073394495413;-0.1694065032819297;0.6872821251400608;232.0;2.0
2.025780328280252;-0.8196960990947134;1.003067484662577;-0.1104020928363498;0.6691000619509077;154.0;2.0
1.862560892236407;-0.5504605367170139;1.041958041958042;-0.2297754862294213;0.3797386125482303;203.0;2.0
0.7037881355374387;-0.1204714354523455;1.4111111111111112;-0.1298525889128906;0.4774535568377601;195.0;2.0
0.321528952476648;-0.0547225936139865;1.0063291139240509;-0.2053916484326807;0.3065629303681877;231.0;2.0
0.2745988009589875;0.2659027439730984;1.3394495412844036;-0.2037398294562436;0.2926679019502097;258.0;2.0
0.6555548930659647;-0.0330152585079869;1.5344827586206895;-0.1140643968518285;0.4777871512699414;187.0;2.0
0.8045172351898635;-0.1436807905874178;0.7371794871794872;-0.1491368304531543;0.5524739434439688;173.0;2.0
1.92744513334652;-0.5953874376994398;1.431818181818182;0.0070000832216127;0.6638029400843533;133.0;2.0
0.8948046904078484;0.5594592140119101;1.0307692307692309;-0.0354496354334172;0.4772939982918086;170.0;2.0
2.348891313837412;-0.3394565998713865;1.8018018018018016;0.0945679810042794;0.4884698369927917;288.0;2.0
0.8424695579690408;-0.0837517429634902;1.5384615384615383;-0.1400120585436688;0.6376418345883366;163.0;2.0
2.3994022893941875;-0.4178014645030407;0.994535519125683;-0.0706474379525113;0.49544243684704;254.0;2.0
1.7805120267519694;-1.223060318499302;1.4333333333333331;-0.1321180110915192;0.4524339118095383;162.0;2.0
0.918545045427881;-0.134682760443378;1.213114754098361;-0.1964164368957444;0.734536251820113;164.0;2.0
0.2718659475782405;-0.1822160943728686;1.0545454545454545;-0.1762541843841406;0.3047211520829294;245.0;2.0
1.1159162473166766;0.2552427246811466;1.5268817204301075;-0.1314147889952397;0.3604766679701179;189.0;2.0
0.6955275617937657;0.6431071304805849;0.538961038961039;-0.2381093424018862;0.697945469024768;150.0;2.0
1.0598336422371704;-0.096150701390015;1.2341772151898731;-0.2298273319532488;0.3197364208422718;206.0;2.0
0.6296670195876755;-0.0626590369368811;1.2026143790849673;-0.094943729029429;0.456041424078392;187.0;2.0
0.5308969066693813;0.5065812174096513;1.394736842105263;-0.1343225009847958;0.4458939503145899;183.0;2.0
1.2658356026300708;0.0325602739608073;1.0833333333333333;-0.1549132156044607;0.4006778173018532;181.0;2.0
1.5475303220075205;-1.208610073317314;0.8507462686567164;-0.0595306783762319;0.4302548287424435;165.0;2.0
0.606262151968793;0.4744954437736617;1.5229357798165135;-0.1566862258773177;0.4494437865783453;209.0;2.0
1.4481168368518214;-1.0303926884530452;0.9758064516129032;-0.1231600415608547;0.4056438611081339;162.0;2.0
2.126681114518659;-1.3197343402352264;0.9635036496350364;-0.4032594852236789;0.6648053914757652;180.0;2.0
0.3473254684463335;-0.2110831501591129;1.263157894736842;-0.1548889390644436;0.294472368228887;261.0;2.0
0.9456210182815044;0.1317194579392401;1.1932773109243695;-0.011454995574733;0.6114372982434527;163.0;2.0
1.1984977604499956;-0.01135302910598;0.4368932038834951;-0.3002638363126951;0.4069091107792231;194.0;2.0
2.563398874319983;-1.126678521042172;1.074766355140187;-0.2877737598376173;0.990048760624773;156.0;2.0
1.865573312561461;-0.5616790036399523;0.9797297297297296;-0.2521065027180266;0.3841861049510061;209.0;2.0
0.4473093414988374;0.3970361382922089;0.4553571428571428;-0.1538373294242029;0.3518207252858429;288.0;2.0
1.2151081422518637;0.3853192164955736;1.3805970149253732;-0.1647589646595363;0.4447886624802757;179.0;2.0
2.3298905720725265;-0.7393747611449597;0.9943502824858758;-0.1179382514106711;0.5196841350473858;222.0;2.0
1.1082596865460506;0.2925301748489579;1.8407643312101911;-0.0734849944613341;0.3268398336802253;216.0;2.0
0.8295949256349295;-0.101557230367036;0.5642458100558659;-0.2803921513369325;0.3087414602450985;181.0;2.0
2.749857124764744;-1.2170109096175077;1.0232558139534884;0.1056951965012535;0.9050741907447952;153.0;2.0
1.1566735856175003;0.1650435861054653;1.165289256198347;-0.1924168747140148;0.4224645068345469;170.0;2.0
0.6461698841636239;0.0133601743079893;1.457142857142857;-0.1632943610240576;0.4902992360661101;172.0;2.0
0.6186910327786993;0.6171513939210105;1.4273504273504274;-0.1608626985032185;0.4511452474506052;187.0;2.0
0.7202913837695936;0.0785661010508744;0.9629629629629628;0.0240828980754048;0.5209356423641971;162.0;2.0
0.9095447843125268;-0.7147921070331956;0.6647398843930635;-0.0373349383782023;0.3467748738651049;235.0;2.0
1.073142613591639;-0.0717139806356194;1.147887323943662;0.023229105697588;0.4003847400310275;193.0;2.0
0.84205800207174;0.1973228893733746;0.5798816568047337;-0.0390703637406413;0.5989930974905631;175.0;2.0
1.276134322567866;0.2470604083106979;1.4646464646464648;-0.0763301326473029;0.4003002351809492;175.0;2.0
1.294823119992903;0.2412147508647311;1.2774193548387096;-0.0564911170299526;0.3965096412536986;177.0;2.0
0.3249030967233197;-0.156467232148213;1.125;-0.2174120512701854;0.2711093801112946;190.0;2.0
0.7613920681749328;0.0036805291112765;1.4821428571428572;-0.0329140404138021;0.5152154263626897;182.0;2.0
2.06477443244743;-0.5597136071789469;0.601010101010101;-0.1876569005352521;0.4823015122238013;235.0;2.0
0.9513661041234652;0.0834247405432131;1.336;0.0610958566908898;0.527193212810024;185.0;2.0
2.3597360858252032;-0.7778052332326842;1.1733333333333331;-0.3015865434581816;0.5855304581184297;225.0;2.0
0.3269771752276782;0.3149180340142071;0.9466666666666668;-0.1630914318595781;0.2523883450981972;154.0;2.0
0.6218578588481007;0.6135938350456479;1.5;-0.1360773418870234;0.4746133249594298;178.0;2.0
1.6119216641707268;-1.4209299974565672;0.7142857142857143;-0.0427246034769912;0.458280009177403;161.0;2.0
2.3056383621624343;-0.7711146275559513;1.256;-0.2813687965749794;0.5338017097333861;245.0;2.0
2.096383569486474;-0.575084458155146;1.7234042553191489;-0.1778824209914564;0.4749826610692162;269.0;2.0
2.527213468334712;-0.5751398993549758;1.7477477477477477;-0.0297877668041605;0.5850230305671382;223.0;2.0
0.6647472543868738;-1.4669144069747106;1.2982456140350878;-0.1308173681649897;0.3404259717490001;161.0;2.0
1.2318911066737706;-0.0159217981653948;0.6745562130177515;-0.2369471134364381;0.3883031712286287;189.0;2.0
0.743985001117977;0.7344804801109177;0.9586776859504132;-0.213434410907333;0.6069640190454473;162.0;2.0
0.2464509879600293;-1.3387417552199756;1.2222222222222223;-0.2923018731169798;0.2780102318932769;160.0;2.0
1.369742904536157;0.2467428713054798;0.5363128491620112;-0.0351823147176866;0.3726672707730349;200.0;2.0
1.0885864172613446;0.1733772135710626;0.5419354838709678;0.1085466565312637;0.6251678402222813;171.0;2.0
1.1611230934727357;-0.9022928788346306;1.181818181818182;-0.1718053098510046;0.2899459448371852;197.0;2.0
1.0890944083801173;0.0524719698444497;1.7789473684210526;-0.2968460422060772;0.4054473619726314;174.0;2.0
0.8743099174994113;-0.0746654011186058;1.5514018691588785;-0.0788791246567328;0.5899548787215916;198.0;2.0
0.3041366553045347;-0.0229701111262946;1.6979166666666667;-0.2264255740756746;0.3340902158754785;188.0;2.0
0.7431107375786685;-0.1718903502841371;0.6258503401360545;-0.2469852911263822;0.6186333273251178;164.0;2.0
0.7375893650870674;-0.2467820108463097;1.4146341463414631;-0.2719827966247575;0.6307176412506694;164.0;2.0
0.2030531447275849;-0.2396788767006667;0.7616279069767442;-0.2341459294747448;0.2144120014196845;179.0;2.0
0.7353320253729131;0.525988470756792;1.1777777777777778;-0.1192652822935486;0.4843126664598219;232.0;2.0
1.0135184502287788;-1.2820996188214373;1.3983050847457628;-0.5633484195455621;0.4038128303775147;164.0;2.0
0.369723258299072;-0.0900545883043326;1.1735537190082646;-0.116372298757503;0.2740534848353875;127.0;2.0
1.1707213791319304;0.0872033723288523;1.6141732283464567;-0.1997114309609262;0.3902998379833493;176.0;2.0
1.112459224352493;-1.3681191754553654;0.527027027027027;-0.0951412725264166;0.4040209906822091;166.0;2.0
0.3845547117300896;0.3596591210855756;1.1933333333333334;-0.2390123874924656;0.3860767939780193;113.0;2.0
1.645263530030731;-1.1593738912031224;0.5625;-0.122966421809649;0.4265295840318323;153.0;2.0
1.172681810596703;-0.003816789848058;1.1162790697674418;-0.2518693547780957;0.3811823263698229;195.0;2.0
1.0390126210720891;0.1103085326889702;1.6164383561643836;0.0819043567837051;0.6431069777804382;162.0;2.0
1.0586919044602554;0.0411909551639632;1.043103448275862;0.020621348158656;0.6469016659351382;161.0;2.0
0.728497300673987;0.6324222370189501;1.7727272727272727;-0.0625853181337231;0.3912988784261471;258.0;2.0
2.2793621879998094;-0.6529360348957288;1.7862068965517242;-0.2556731118339244;0.5679056129540911;250.0;2.0
2.129746139945122;-0.5788050021757747;1.853448275862069;-0.109831191836681;0.5339796284231095;283.0;2.0
1.5467218904795486;-1.0361435736799631;0.9925373134328358;-0.6848602162976595;0.6930887459283418;186.0;2.0
1.572092255100168;-1.449415427172912;1.4146341463414631;-0.2204708324390624;0.4399431418189533;163.0;2.0
0.7685486205894313;-0.1014519562179124;1.1346153846153846;-0.0738948784696117;0.5572108373447857;181.0;2.0
0.4731098743160716;-0.2278244432810755;0.8266666666666667;-0.1813103526760429;0.4195629816963367;177.0;2.0
1.7541045158671107;-1.2570490593319363;1.2291666666666667;-0.0079920032916028;0.4732506195256071;161.0;2.0
1.3880810546177396;-0.3344120659650617;1.132867132867133;-0.0571258686766837;0.2817679998884249;211.0;2.0
0.1239948870663387;-0.2443739531972136;1.2419354838709675;-0.2629648383438517;0.2079652651184583;144.0;2.0
0.8560368835352221;-0.1899748743718591;0.982608695652174;-0.2972885531754293;0.7225982034419449;162.0;2.0
0.7038615584436964;-0.0853628421906347;1.4875;-0.1907768386017557;0.5945914953782686;162.0;2.0
1.210690576439877;0.1416056734141263;1.6842105263157894;-0.1951137306053623;0.3302952672680952;260.0;2.0
2.5347021341405984;-1.100236266806403;1.0178571428571428;-0.3762026520278028;0.9719428409273184;151.0;2.0
1.7502970154681727;-1.3949234578113443;0.6428571428571429;-0.2839853336908109;0.4901961947308755;164.0;2.0
0.5889049155656207;0.5665931358903393;0.7161290322580646;-0.0121516527295637;0.4080832143363364;192.0;2.0
1.265496248741425;0.1251108640310458;1.2941176470588236;-0.2189440495029465;0.404505373443866;201.0;2.0
2.0522674648028483;-0.9364649668055928;1.31055900621118;-0.3451261222457236;0.5550540543325571;251.0;2.0
1.6621962548466491;-0.7072376672443751;0.9819277108433736;-0.4433861980574183;0.5228433442864461;209.0;2.0
1.113237990242475;0.160700697772463;1.108843537414966;-0.2421231212603903;0.3647862713849334;215.0;2.0
0.7033708412768411;-0.1542133010258163;1.6224489795918366;-0.1738270248496369;0.5568334862258801;169.0;2.0
0.7087349218991961;-0.0326551810255671;1.3177570093457944;-0.1683542238166998;0.5420347708379765;188.0;2.0
1.7388102536965508;-0.5734713785787466;0.532967032967033;-0.2663566600100529;0.4494014072217588;186.0;2.0
2.093497092077188;-1.1736247971416085;0.5294117647058824;-0.154139596789299;0.7279688995710009;159.0;2.0
1.142530975837924;-1.4430652771619927;1.4625;-0.1884600035485719;0.3745312645107853;168.0;2.0
0.2829087673581072;0.2005911407075832;1.3333333333333333;-0.6029648556515764;0.5553573772306392;156.0;2.0
0.3826926732214799;-0.1080428953006839;0.9637681159420288;-0.0977190993424326;0.2373121165876892;176.0;2.0
0.6176068887571509;-0.2450474525928774;1.0305676855895196;-0.187887466505692;0.2309588947066218;313.0;2.0
1.0095072326277208;-0.0205895939732366;0.8689655172413793;-0.2937832940209104;0.3540186702156248;197.0;2.0
0.3471317467787592;-0.0540954773869346;0.9202898550724636;-0.1002080673022492;0.2455501065572052;161.0;2.0
0.5548720130723364;-0.3906646329141691;1.2627118644067796;-0.4549468949903875;0.6324191503792116;158.0;2.0
0.6618215146311729;0.6396109738194187;1.5526315789473684;-0.1108659108443517;0.4672544079928672;202.0;2.0
0.7176887946966792;-0.1638148835317542;1.2816901408450705;-0.2223738904137735;0.5947391747516043;162.0;2.0
1.7335362881157843;-0.4793401751119143;0.6891891891891891;-0.049177795992948;0.4040681154347767;188.0;2.0
1.66663950319594;-0.4417501204305732;1.0196078431372548;-0.0709281430451715;0.3136870310934981;229.0;2.0
0.6184763531763411;-0.3096649860817049;1.4935064935064934;-0.3505433543896181;0.6117672973777231;161.0;2.0
2.414045149106696;-0.5066620772330473;1.8345864661654128;-0.0927090065339857;0.5550733691548593;242.0;2.0
0.1965777076519651;-0.5760691871786914;0.8928571428571429;-0.1677232867915256;0.1165820018768764;162.0;2.0
0.6494611701473078;0.6336311363163076;1.5229357798165135;-0.1069850809167082;0.4584531804589723;216.0;2.0
1.1527943269128462;0.1386854085943618;1.2932330827067668;-0.2133906438364683;0.3602727916481726;221.0;2.0
0.4467194818048172;-0.1209775079386338;1.129496402877698;-0.0830386023056847;0.3560758040793305;182.0;2.0
2.350376445936839;-1.0101845004740913;1.3393939393939394;-0.4154323073670274;0.6546183381400211;247.0;2.0
1.255983372517574;0.1191769295339498;0.4067796610169492;-0.2346215213124318;0.4131066271956476;178.0;2.0
0.5828233065743058;-0.2903727849155808;1.0056179775280898;-0.1963677504382802;0.2472039636303967;239.0;2.0
1.0631219974977162;0.0107229926626607;1.190909090909091;-0.4335388864378518;0.4856748244381889;171.0;2.0
2.0813250668942405;-0.5140869897612825;1.0333333333333334;-0.1251262411477006;0.4753455772435482;243.0;2.0
0.4519854747817344;-0.4095498291850281;1.0;-0.2867702737009133;0.2189714143781747;263.0;2.0
1.52689660241612;-1.266515874606392;1.4146341463414631;0.0318153877253476;0.4675306357674109;197.0;2.0
2.703789554594988;-1.2331288994938427;1.0841121495327102;0.1136697108507786;0.8987733069903235;151.0;2.0
0.7456056722854164;0.6778001312366184;1.348623853211009;-0.0332071977210063;0.4773570003389964;192.0;2.0
1.725252819575625;-1.2823218628776023;0.5159235668789809;-0.160529496500892;0.4701944602490447;162.0;2.0
1.0751991178425195;0.0161617275240878;0.563953488372093;-0.2078128819868007;0.3445326794599032;182.0;2.0
1.371165594011484;0.2924882644081689;1.037037037037037;-0.0750744117616661;0.4328575838910566;183.0;2.0
0.5201438446054307;-0.2545222814531624;1.336283185840708;-0.2241927276655001;0.4557167169041408;179.0;2.0
1.6135438033778042;-1.2350902476580807;1.6857142857142855;-0.2854128466067228;0.4572683354858731;163.0;2.0
0.786666364880765;0.7498830325963844;1.6153846153846154;-0.0430658517869765;0.5197465569814207;188.0;2.0
0.7869228042859745;-0.725769880971201;0.6962025316455697;-0.0747887329055899;0.31372265918693;220.0;2.0
1.5424468551402055;-1.3206276438414908;1.475;-0.2403165299648614;0.4594972247457672;166.0;2.0
1.6662397115915213;-1.2964444309350092;1.5;-0.0608595323579871;0.4527238942920123;169.0;2.0
1.9099605221677656;-0.6778280935181185;1.681818181818182;-0.2018593290828072;0.4757629111375848;220.0;2.0
0.5510401484452981;-0.2540350784971129;0.9557522123893806;-0.2216141280004837;0.2304435201833501;301.0;2.0
1.4717748922510512;-1.0438183249623405;0.984375;-0.1600214204550021;0.3587309594280244;175.0;2.0
0.8881902735289512;-0.0593634777085855;1.0895522388059702;-0.0421387335699371;0.5637843114822516;191.0;2.0
0.7535131106211479;-0.04;1.6095238095238096;-0.0286932824334828;0.5084436913247947;196.0;2.0
0.7732216501756196;-0.0553341552477924;1.7083333333333333;-0.0979482673447718;0.5173633638042398;202.0;2.0
0.9133333666151778;0.1504838289466342;1.0603448275862069;0.0234914214840861;0.6104473108680161;182.0;2.0
1.149015525773608;-0.2662544411207296;0.988950276243094;-0.2571241759685034;0.6384531309769628;247.0;2.0
1.215;-0.0365844989490941;0.8292682926829268;-0.2619540224474203;0.3670406742625591;200.0;2.0
0.8043954209350263;-0.0328461650504586;0.9857142857142858;-0.0510175228578959;0.4191236531724832;251.0;2.0
1.0515818136293635;-0.0806470653401664;1.7786259541984732;-0.2900944937332428;0.3502197474134137;188.0;2.0
2.412605500314354;-0.7473180211616843;1.02803738317757;-0.3544479223272988;0.6678740434705792;232.0;2.0
0.7617725425084507;-0.0817103489763288;1.7454545454545454;-0.1084566449044935;0.4814282095167891;223.0;2.0
0.5420854271356784;-0.3330948078859873;1.0298507462686568;-0.2503059088208157;0.5330196337684779;208.0;2.0
1.0135143356229763;-0.0026534667461461;1.017391304347826;-0.0553194383093655;0.705204223179791;163.0;2.0
0.8094319399334493;-0.043134068842173;0.6494845360824743;-0.0622948923818782;0.5729182032811979;189.0;2.0
0.673633319554805;-0.7045660185417705;0.976470588235294;-0.5909989870808301;0.2981216252170561;210.0;2.0
2.237021906109056;-0.9284432352536084;1.1806451612903226;-0.1789217203462139;0.5179173023850892;247.0;2.0
0.6543514638357424;-0.1162076152227707;1.7358490566037736;-0.1178033592556796;0.4718204289711896;195.0;2.0
0.6827578442348644;-0.1094936504509851;1.588785046728972;-0.1157588631626392;0.4915394220055999;180.0;2.0
1.2415996725309744;-1.1721288756828767;1.0;-0.3213718013940117;0.3915364144004959;164.0;2.0
0.4454446904499308;-1.1139593393155276;0.9708029197080292;-0.0544306918727312;0.2794733111741267;153.0;2.0
1.3041389670560786;0.3005800026904777;1.2626262626262623;-0.0053853264163684;0.3654882327905775;187.0;2.0
0.6067308279307984;0.5983406287510081;1.4907407407407407;-0.2050801751696763;0.4614368053285301;199.0;2.0
1.2384349933100804;0.1778011582175806;1.7142857142857142;-0.3282637074937148;0.4489070244012155;195.0;2.0
0.7624017913920431;-0.1292178048540763;1.403361344537815;-0.1385450633190488;0.5661752554349873;184.0;2.0
0.7561675294819081;-0.0048945212894078;1.7183098591549295;-0.1235985142556866;0.5914294637995948;168.0;2.0
0.2874860474214001;0.2749106771816915;1.0;-0.1545737354540251;0.2163119933912639;144.0;2.0
1.332142310005991;0.1586143867792424;1.3;-0.0874263537138795;0.3904819073879751;194.0;2.0
0.4381643886587038;0.0347832592686858;0.9817073170731708;-0.0543497512360629;0.2888537162576678;240.0;2.0
1.055595302695799;0.0889905914869083;1.3941605839416058;-0.1977011211797832;0.3593562037828491;194.0;2.0
0.9547256659994454;0.6322835879933674;1.4608695652173913;-0.0522554170296046;0.4938550168851542;211.0;2.0
0.1929262344606634;-0.2083288282060304;0.9044585987261148;-0.2157601098775074;0.2912189611694075;140.0;2.0
0.3813481706340403;-0.830666627456895;1.5294117647058822;-0.2120740779550235;0.1504707730293233;226.0;2.0
0.2703078924259433;-0.1902855937794292;0.8910256410256411;-0.1934141992458126;0.2315408586527475;136.0;2.0
0.87;-0.109421311441497;0.9912280701754386;-0.1249154416487796;0.6100023402816473;164.0;2.0
0.5629647601082604;-0.2333730314746435;1.3928571428571428;-0.2915450194009145;0.5584067532905714;164.0;2.0
1.173524243558353;0.169359402416109;0.7769230769230769;0.1613348402199046;0.6302760079362923;175.0;2.0
0.5551105519699875;0.5128591709067043;0.8144329896907216;0.0746666018375441;0.2990499105483065;252.0;2.0
0.8959965771603433;-0.0268708029180957;0.6834532374100719;-0.0643035322944982;0.588798684083999;172.0;2.0
1.8824729497211257;-0.4823278943769086;1.748091603053435;-0.0332045282092874;0.4220196990197686;221.0;2.0
1.118512433551242;-0.0001972470805918;1.044776119402985;-0.2354204154497592;0.3863137567161978;181.0;2.0
1.477556787303985;-0.8262907107489406;1.0522388059701493;-0.1372808994531167;0.4135887056199496;230.0;2.0
1.2725192982393485;0.4413815998530134;0.3450292397660818;0.2130103005838602;0.7185866749915989;167.0;2.0
0.6744858741287374;-0.1267032726847937;1.6238532110091743;-0.1532622905386897;0.4594539906071517;204.0;2.0
0.8288768828011084;-0.0452497902585344;1.4096385542168677;-0.1358012953098087;0.6111689479915451;165.0;2.0
2.8497609658405563;-0.6614836746343239;1.019047619047619;0.0165253738741445;0.8451997382229712;156.0;2.0
1.5111035447858587;-1.396282262852436;1.4047619047619049;-0.4003604026627581;0.4524313874739491;161.0;2.0
0.8261568323853448;-0.074588600793397;1.469135802469136;-0.1211802721605511;0.6176337362808457;163.0;2.0
1.1775589450078403;-0.6550620051832354;0.9866666666666668;-0.1266110526215898;0.2753384743196494;225.0;2.0
0.7711134632247699;0.5094166333894246;1.5339805825242718;-0.2179742657159382;0.5275082147796253;175.0;2.0
1.7699914430742882;-0.5869742544536141;0.9722222222222222;-0.2631193540213407;0.3678995014959201;200.0;2.0
0.5809616244473422;0.4545826108343493;1.3457943925233644;-0.2522824820341774;0.5014519437866456;163.0;2.0
0.877894202939192;-0.1;1.2444444444444445;-0.156569191454785;0.6418422876895689;163.0;2.0
0.5028798070399364;0.2633606702648262;0.9738562091503268;-0.2258268332313423;0.4472516671884247;200.0;2.0
1.404252733840735;-0.679309396284157;1.3142857142857145;-0.0393469584808877;0.3217012860916909;168.0;2.0
2.735793485261147;-1.3251300640600605;1.0654205607476634;0.1336882042407349;0.8955815190906001;157.0;2.0
1.683372974559583;-0.5801109923342455;1.0229007633587786;-0.2403689192600697;0.3455250080151397;189.0;2.0
0.7675501442790494;-0.1247319762993584;1.4933333333333334;-0.2241998196690734;0.6712929358945023;166.0;2.0
1.92098908228412;-0.6043683298479847;0.9363057324840764;-0.2718478335355;0.3896444851564083;207.0;2.0
2.724035687242189;-1.4112226035149464;1.0841121495327102;0.0614580129599462;0.9163829527884768;157.0;2.0
0.6300502897333153;0.6051528357718883;1.0;-0.1194420785740029;0.449240873603394;186.0;2.0
0.7942356667455669;-0.1872314268019677;0.9523809523809524;-0.1724613909144632;0.2216867181436017;294.0;2.0
0.424956943805849;-0.0625850544792508;0.8515625;-0.1285099619795621;0.2783539090141256;178.0;2.0
0.9783611881390416;0.0969823824961037;0.936;-0.193358276832199;0.3180810943664811;220.0;2.0
1.194048861964931;0.022778896239815;1.3516483516483515;-0.2494959001567488;0.3765740618181529;189.0;2.0
1.372358754820236;-0.5476702523253787;1.0193548387096774;-0.1673470055935676;0.2827089125161452;221.0;2.0
2.006354077378303;-0.5938972214158289;1.4545454545454546;-0.1763379119738409;0.5049167992038357;287.0;2.0
1.1303095269677788;-1.1276349556843406;1.2736842105263158;-0.1628160107627004;0.4143307176063234;121.0;2.0
1.3349352729678488;0.1463916727586842;1.4932432432432432;-0.1786295649468231;0.3978736302234389;198.0;2.0
2.146845907595217;-0.6378798323665344;1.8596491228070176;-0.183629315869379;0.5284046494766574;236.0;2.0
0.7235569022617852;-0.3059256663226974;1.0350877192982455;-0.3599968135909278;0.6243460356529561;160.0;2.0
2.02153556627848;-0.7158919640780261;1.3636363636363635;-0.192011656516576;0.520121952222332;249.0;2.0
1.3388990532138527;-1.231837431311353;1.263157894736842;-0.1913657456450448;0.4122992134162225;163.0;2.0
0.6843028985409024;-0.1241494216708107;1.3046875;-0.1240336018752376;0.48169873592288;195.0;2.0
2.0913800417087813;-0.8698001886667784;1.0344827586206895;-0.2601966268546039;0.5076275965521398;239.0;2.0
2.337942572996651;-0.518782718767355;1.093167701863354;0.0592243019222633;0.5390840485669751;232.0;2.0
0.8135154353852335;0.0353461966738983;0.9747899159663864;-0.1954882858619427;0.6252501677275344;163.0;2.0
1.3882655244759885;-1.5503491895314243;1.1932773109243695;-0.3090457576262173;0.4643019036066007;159.0;2.0
0.8067461817199683;-0.0573045871875658;1.45;-0.1761640773701638;0.6382341187147424;167.0;2.0
1.384744371048427;-1.2095771824447166;1.0083333333333333;-0.2094020962945387;0.4005088468098184;163.0;2.0
2.521728347172138;-0.6850495015461482;1.1226993865030674;-0.1028513258553505;0.5346565057955963;237.0;2.0
0.8670186299990342;-0.6540920847998623;1.4878048780487805;-0.136855837114067;0.3202030138465463;184.0;2.0
