Q_val;R_val;S_val;RR_l_0/RR_l_1;signal_std;seq_size;label
-1.2831;0.5381;-0.4524;-0.4284;-0.273;1.3603;0.0
-0.4282;-0.0453;-0.2468;-0.0586;-0.4098;0.1203;0.0
-0.7691;0.7645;-0.4243;-0.0025;-0.3212;1.3872;0.0
-0.9105;-0.3247;0.0726;-0.1578;-0.8582;-0.2032;0.0
-0.263;0.864;0.1534;-0.1759;0.4223;0.6594;0.0
-0.7007;-0.3635;0.2416;0.0118;-0.9603;0.6594;0.0
-1.0988;0.3991;-0.6566;-0.1939;-0.3322;1.0638;0.0
-1.1247;-0.304;-0.0507;-0.0636;-0.7599;-0.2841;0.0
-1.2942;1.2065;-2.0022;-0.1097;1.1346;-1.3084;0.0
-0.1996;1.8489;-1.5382;0.049;1.153;-1.3353;0.0
-0.173;1.2691;-0.1103;-0.2512;0.4773;0.5785;0.0
-0.6463;0.7829;-0.1389;-0.064;-0.2876;1.2255;0.0
-1.0981;0.9685;-0.2299;-0.3031;-0.2051;1.0638;0.0
-0.4736;1.1989;0.5152;0.0744;-0.2504;1.3333;0.0
-0.9408;-0.3199;0.177;-0.2051;-0.8839;0.5516;0.0
1.7872;2.0178;1.4381;-0.0551;-0.2015;0.2281;0.0
0.1171;0.3649;0.1857;-0.222;-0.0005;-0.7154;0.0
-0.1726;0.0681;-0.1269;-0.0286;-0.2962;-0.1223;0.0
0.1448;1.6266;0.1779;0.0344;0.6288;0.309;0.0
-0.0564;1.4436;-0.153;-0.2235;0.594;1.0368;0.0
-1.1171;1.2029;0.0459;-0.0198;-0.0811;0.5246;0.0
-1.0041;0.8704;-0.0367;-0.1732;-0.2039;1.2255;0.0
-0.4167;-0.1854;0.4745;-0.1097;-0.9102;0.3629;0.0
0.4634;1.4928;0.2742;-0.3731;0.6538;-0.0684;0.0
-0.1932;0.0678;-0.1224;1.7583;-0.2815;-0.2841;0.0
-0.1266;0.2348;-0.251;-0.2543;-0.0646;-0.4997;0.0
-0.89;1.5559;-2.0715;-0.312;1.2244;-1.4162;0.0
-0.9915;-0.4628;0.0442;-0.1559;-0.9389;0.5785;0.0
-0.8144;1.2211;0.2947;-0.2627;-0.1966;1.4411;0.0
-0.2536;0.0966;-0.1763;-0.0813;-0.3958;0.5785;0.0
-1.4328;-0.438;-0.3148;-0.0609;-0.821;0.3629;0.0
-0.4264;2.8196;-1.0147;-0.2116;3.2179;0.3629;0.0
-0.4941;0.0563;-0.2634;-0.137;-0.2284;-0.0414;0.0
-1.286;0.4866;-0.5622;-0.1097;-0.3536;0.7672;0.0
-0.89;0.7668;-0.5153;-0.1305;-0.3383;1.1177;0.0
0.9914;0.6491;0.5924;-0.1966;-0.1153;-0.4458;0.0
-1.2284;0.3907;-0.6434;-0.1328;-0.3218;0.6325;0.0
-0.6294;2.7434;-0.6866;-0.375;2.6155;0.929;0.0
-0.9044;1.5275;-1.9064;-0.1447;1.1444;-1.3893;0.0
-0.502;-0.0463;-0.3499;-0.0544;-0.4031;-0.3649;0.0
-0.0351;0.2161;-0.005;-0.0836;-0.1233;0.1742;0.0
-1.5415;0.089;0.0035;-0.0551;-0.0274;-0.2571;0.0
-1.2374;0.1283;-0.5995;0.2355;-0.4568;0.7403;0.0
0.3219;1.1856;0.2211;-0.2585;0.429;0.6864;0.0
-1.0513;-0.4426;0.0557;-0.1835;-0.901;0.2281;0.0
-1.2996;-0.2741;-0.1269;-0.2885;-0.7861;0.6325;0.0
-0.8965;-0.3412;0.2891;-0.0867;-0.9596;0.5785;0.0
-0.6676;1.0991;-0.4484;-1.8975;0.6838;-0.1223;0.0
-0.926;0.5927;-0.1533;0.031;-0.3609;1.0368;0.0
-1.1974;-0.5095;-0.224;-0.0824;-0.8949;-0.0684;0.0
-1.0891;-0.0605;-0.1339;-0.1097;-0.6475;0.3629;0.0
-1.224;1.0549;0.1093;-0.1997;-0.1636;1.1985;0.0
-1.4335;0.6777;-0.6349;-0.1766;-0.1935;0.9829;0.0
-0.5178;0.772;-0.2148;-0.1097;-0.3188;0.8751;0.0
-0.8493;2.2929;-0.7386;0.1467;2.1457;2.762;0.0
-0.4628;-0.0328;-0.262;-0.0821;-0.1453;-1.2275;0.0
-0.7129;0.6614;-0.0552;-0.2439;-0.2827;1.1985;0.0
0.4997;1.2106;0.5337;-0.2824;0.2256;0.5785;0.0
-1.6387;-0.6278;-0.2125;-0.0863;-0.8588;0.5785;0.0
0.4691;1.1983;0.3281;-0.1097;0.4119;0.5246;0.0
-0.3044;1.6095;-1.4857;0.1936;1.3802;-1.1736;0.0
-0.1021;0.0857;-0.344;0.0075;-0.0921;-0.3919;0.0
-1.2618;-0.3666;0.0445;-0.312;-0.8717;0.3359;0.0
-0.1701;1.2545;-0.0743;-1.904;0.5475;0.8212;0.0
-0.6949;0.9736;0.3573;-0.305;-0.2772;1.1446;0.0
-0.9033;1.5071;-2.2361;-0.0747;1.3698;-1.3893;0.0
1.2909;1.0018;1.5122;0.0406;-0.3823;-0.4458;0.0
-0.7093;-0.1116;-0.6226;-0.0813;-0.0817;-0.7962;0.0
-0.8627;1.1195;0.2489;-0.1097;-0.1263;0.6055;0.0
-0.7219;-0.1149;0.3905;-0.1551;-0.8289;0.7403;0.0
-0.8018;1.043;-0.0575;0.0544;-0.2174;1.0368;0.0
-0.9595;-0.1777;0.0737;-0.1097;-0.7556;0.2012;0.0
-0.3145;-0.0723;-0.1207;0.084;-0.5021;-0.1223;0.0
-0.1269;2.3769;-1.4244;-0.2812;2.3595;2.8698;0.0
-0.4221;0.0347;-0.1684;-0.1359;-0.3237;0.0125;0.0
-0.1449;0.1359;-0.0757;-0.1097;-0.2797;-0.0414;0.0
-0.3415;0.667;1.0646;-0.1586;0.1529;0.2551;0.0
-0.5243;0.0117;-0.4178;0.9156;-0.2259;0.0394;0.0
-0.9894;-0.3088;0.0063;0.4116;-0.8631;0.7672;0.0
-1.0563;-0.1586;0.0529;-0.4265;-0.7898;0.6594;0.0
-0.5815;1.1567;0.0285;-0.2616;-0.1612;1.1716;0.0
-0.8468;0.8431;0.1857;-0.3969;-0.2992;1.1446;0.0
-0.7781;0.887;0.1591;0.0337;-0.2705;1.3872;0.0
-0.7989;0.8918;0.104;-0.1328;-0.2271;0.6594;0.0
-0.3692;0.0755;-0.3035;-0.2158;-0.1893;-0.2301;0.0
-1.1276;-0.4046;-0.2159;-0.3208;-0.8417;0.929;0.0
-0.9782;-0.4161;0.0636;0.1959;-0.7648;0.0125;0.0
-0.9113;-0.3277;-0.0333;0.1121;-0.8796;0.4168;0.0
-0.9156;1.0394;0.0405;-0.2577;-0.1159;0.7403;0.0
-0.6049;2.9799;-1.5404;0.0137;2.6729;2.8429;0.0
-0.8508;-0.1276;0.3745;-0.1578;-0.8265;0.5516;0.0
0.3655;1.6236;0.1877;-0.2262;0.5084;1.3872;0.0
-0.9472;0.0446;0.2624;-0.3146;-0.755;0.7672;0.0
-0.4336;1.9537;-1.2172;-0.0394;1.2476;-1.3893;0.0
-1.7964;-1.1212;-0.4864;-0.0844;-1.0488;0.0933;0.0
0.1934;1.121;1.31;0.0721;0.093;0.6325;0.0
-1.2582;1.9015;-0.9164;-1.6687;1.9423;0.5785;0.0
-1.4792;-0.6177;-0.4392;-0.2927;-0.8057;0.0125;0.0
0.3496;1.4168;0.1675;-0.3031;0.6825;0.7133;0.0
0.3403;1.7966;-0.467;0.5984;1.0912;-1.3353;0.0
-0.9804;-0.5747;-0.1005;-0.1332;-0.9615;0.6864;0.0
-0.7349;0.9682;0.0919;-0.0651;-0.3053;0.8212;0.0
-0.3393;2.1403;-1.8255;-0.0744;2.4261;2.789;0.0
-0.0999;2.7387;-0.3934;0.0314;3.4103;2.8698;0.0
-0.1899;0.1952;-0.1336;-0.2712;-0.1715;-0.0954;0.0
-0.8922;-0.5013;0.0456;-0.1332;-0.9456;0.7672;0.0
-0.9933;0.9141;-0.1794;-0.1786;-0.2754;1.1446;0.0
-0.2778;0.1508;-0.1732;-0.1639;-0.2302;-0.2032;0.0
0.2359;1.5962;1.7308;0.8207;0.5255;0.4438;0.0
0.0808;0.1789;0.1074;0.0267;-0.2094;-0.338;0.0
0.0782;0.2013;-0.0294;-0.2635;-0.174;-0.0414;0.0
-0.326;0.0091;-0.3774;-0.1097;-0.0408;-0.4188;0.0
-0.9508;-0.1177;0.0756;-0.187;-0.6181;0.3359;0.0
-1.0462;-0.1246;0.088;-0.3585;-0.7281;0.8212;0.0
0.2222;1.0871;0.3287;-0.0571;0.4198;-0.7423;0.0
-0.975;-0.4502;0.2113;0.0371;-0.8668;0.2551;0.0
-0.5491;1.0738;1.4774;-0.4358;0.349;1.4142;0.0
-0.3616;0.1257;-0.2403;-0.2451;-0.2271;-0.0954;0.0
-0.1586;0.1352;0.0391;1.3285;-0.3298;-0.0954;0.0
-1.0347;0.9763;0.0672;-0.0878;-0.2088;1.0907;0.0
-0.1572;0.004;-0.0951;-0.2666;-0.3518;-0.0145;0.0
-1.1315;-0.4697;-0.2083;-0.1893;-0.8136;0.0125;0.0
-0.376;1.2313;0.4062;-0.044;-0.2204;1.1716;0.0
-0.2151;0.0885;-0.2695;-0.0267;-0.1569;-0.2032;0.0
-0.7482;-0.1091;0.2408;-0.0859;-0.8112;0.0394;0.0
-0.1046;1.0361;-0.0288;2.019;0.4198;0.3359;0.0
-0.6848;-0.3602;0.1619;-0.1332;-0.8833;0.6055;0.0
-0.8141;0.3853;-0.2198;-0.132;-0.4526;1.1177;0.0
-1.0556;0.1104;0.2065;-0.0613;-0.6175;0.4168;0.0
-0.6067;-0.0983;-0.9228;-0.1947;-0.0579;-0.6614;0.0
0.1398;1.8908;0.0987;-0.2128;0.7931;0.5516;0.0
0.0246;1.2588;-0.0552;-2.1485;0.6728;-0.1762;0.0
-0.7838;1.8423;-1.4657;-0.3104;1.2269;-1.4432;0.0
-1.1344;-0.2589;0.1296;-1.6633;-0.7703;0.6325;0.0
1.7682;1.6233;1.3873;-0.1336;0.0765;0.2551;0.0
-0.8853;-0.3588;0.3214;-0.1097;-0.9297;0.5516;0.0
-0.2342;0.0173;-0.0957;1.2055;-0.254;-0.0414;0.0
-1.0185;0.5593;-0.2179;-0.0267;-0.3909;0.7672;0.0
-1.1135;-0.4656;0.0636;0.1667;-0.9065;0.3629;0.0
-0.7813;1.4656;-1.8544;-0.1443;1.1365;-1.3623;0.0
-0.1143;0.0028;-0.1457;-0.1097;-0.3035;0.0394;0.0
-0.9264;0.7775;0.1051;-0.1528;-0.2528;0.9829;0.0
-0.763;-0.1524;0.5351;-0.1801;-0.854;0.6864;0.0
-0.5236;-0.0453;-0.4021;-0.1355;-0.2314;0.1472;0.0
-0.7154;0.8253;0.147;-0.2654;-0.3188;1.0907;0.0
-0.4181;-0.046;-0.2726;0.0256;-0.3872;-0.2301;0.0
-0.9624;0.9579;-0.2179;-0.1762;-0.1453;0.6325;0.0
-0.8263;-0.0088;0.318;0.0898;-0.788;0.2551;0.0
-0.1043;0.2036;-0.0437;-0.3419;-0.1801;-0.0414;0.0
-0.1107;0.1707;0.2385;-2.1081;-0.2815;-0.0684;0.0
-1.2712;1.0726;-0.1226;-0.1324;-0.1599;1.0638;0.0
-0.8634;-0.4752;0.1405;0.0848;-0.9279;0.4168;0.0
-0.6665;1.5858;-1.8176;0.1017;1.068;-1.3893;0.0
-0.8897;1.1555;0.1574;-0.3062;-0.1514;0.929;0.0
-1.0909;-0.2611;0.0172;-0.2216;-0.8252;0.8212;0.0
-0.7763;1.096;-0.5307;0.2351;0.6728;-0.8501;0.0
-0.1305;1.328;-0.0569;-0.2089;0.5536;0.1203;0.0
-1.1978;-0.3918;0.0523;1.1398;-0.8509;0.4977;0.0
0.2863;1.0618;0.1911;1.1451;0.5243;-0.2301;0.0
-0.3019;0.0069;-0.233;0.081;-0.3267;-0.1762;0.0
-0.2335;0.0518;0.0582;-0.1624;-0.397;-0.1493;0.0
-0.966;0.5137;-0.4077;-0.1539;-0.353;0.929;0.0
-1.1038;0.6717;-0.4805;0.0383;-0.3536;1.0638;0.0
-0.7817;0.9866;0.1987;-0.1747;-0.3102;1.0098;0.0
-0.3008;0.5851;-0.2808;-0.7187;0.4522;0.5785;0.0
-1.0178;0.7594;-0.2336;-0.3662;-0.2467;1.1177;0.0
-0.5769;-0.1394;-0.447;-0.0786;-0.0842;-0.8232;0.0
-0.5038;1.6598;-1.4323;-0.1451;1.1481;-1.3893;0.0
-1.0005;0.6145;-0.4903;-0.1939;-0.2565;1.2255;0.0
-0.9854;-0.2971;0.2829;0.0364;-0.8674;0.7672;0.0
0.008;0.5806;-0.2535;-0.0686;-0.5485;0.902;0.0
-1.2636;-0.7078;-0.1448;-0.1097;-0.9444;0.7133;0.0
-1.0358;1.6005;-1.4;-0.2139;1.1303;-1.4971;0.0
-0.0927;1.1318;-0.1665;-0.2997;0.2078;0.9829;0.0
-0.1672;0.1778;-0.1454;-2.3757;-0.1605;-0.1493;0.0
0.0692;1.1322;1.7066;0.0267;0.3056;-0.1762;0.0
-0.9285;1.3652;-2.0446;-0.1097;1.0772;-1.3893;0.0
-0.5114;0.2424;-0.0305;-0.237;-0.1489;0.0125;0.0
-1.2093;0.822;-0.0479;0.0886;-0.2339;0.8481;0.0
-0.6953;1.3569;-1.9876;0.0314;1.2434;-1.3623;0.0
0.3777;1.4829;0.1992;-2.6433;0.517;0.4977;0.0
0.4691;0.2868;0.3206;1.8721;0.1681;-0.338;0.0
-0.4894;1.6184;-1.4924;-0.1097;1.583;-1.0927;0.0
-0.5736;0.701;-0.0696;-0.2689;0.7546;-1.0658;0.0
-0.8771;-0.6212;0.0838;0.006;-0.9853;0.4977;0.0
-0.5628;0.3828;-0.1446;-0.0225;-0.4636;0.7403;0.0
-0.2939;0.9276;-0.071;0.1271;0.297;-0.2301;0.0
-0.0841;0.1645;-0.033;-0.1366;-0.2394;-0.2571;0.0
-0.3321;1.3398;-0.2221;0.0687;0.6172;-0.1223;0.0
0.2535;2.8307;0.0714;-1.9601;2.6253;0.7403;0.0
-0.3908;0.0497;-0.5816;0.054;-0.0371;-0.904;0.0
-0.4048;0.1592;-0.3833;0.1025;-0.1068;-0.4727;0.0
-0.8925;-0.3719;0.0439;-0.1343;-0.8961;0.902;0.0
-0.9221;0.3457;-0.5243;-0.1536;-0.3982;0.5516;0.0
-0.8879;0.3363;-0.1361;-0.0532;-0.4373;-0.0414;0.0
-0.4336;0.1003;-0.3782;-0.1878;-0.1612;0.0664;0.0
-1.205;0.8727;-0.4586;-0.132;-0.2168;1.1446;0.0
-1.0362;0.9362;-0.1044;-0.0663;-0.2003;0.8212;0.0
-0.3487;0.9766;-0.158;2.7045;0.4443;0.1742;0.0
0.341;1.1838;2.5169;-2.5034;0.3917;0.8751;0.0
2.5388;1.9704;2.3635;0.0506;-0.2846;-0.4997;0.0
-2.0991;-0.144;-1.6946;-0.0267;-0.4862;0.902;0.0
0.5433;1.22;0.5295;0.7776;0.2298;0.4707;0.0
0.2337;1.503;0.1641;0.0317;0.5872;0.8481;0.0
-0.1453;0.1867;-0.1097;-0.0586;-0.2247;0.0394;0.0
-0.813;0.5604;-0.3046;-0.0194;-0.3878;1.2255;0.0
-0.3688;0.1209;-0.4889;-0.0209;-0.0188;-0.6345;0.0
-0.1842;0.2528;-0.1097;-0.2604;-0.1874;-0.0954;0.0
-0.7266;2.7165;-1.0753;-0.1097;3.0939;2.8429;0.0
-0.3649;0.0369;-0.308;-0.0544;-0.2504;-0.1762;0.0
-0.2176;-0.086;-0.0325;-0.137;-0.4941;-0.3649;0.0
-1.1499;1.4163;-1.6511;-0.1447;0.9911;-1.3623;0.0
-0.9131;1.3142;0.1049;-0.1332;-0.0304;0.8751;0.0
-0.4851;-0.0231;-0.4175;0.0771;-0.1966;0.0394;0.0
-0.426;0.0188;0.1065;0.1009;-0.3023;-0.1493;0.0
-0.6579;0.4761;-0.0704;-0.3873;-0.4196;1.5759;0.0
-0.9616;-0.4969;-0.0552;-0.0851;-0.9383;0.282;0.0
-0.3692;2.4453;-0.0123;-0.177;1.8842;0.7672;0.0
0.1592;1.5842;0.1515;-0.0413;0.5029;0.282;0.0
-0.4185;-0.2331;-0.199;-0.2151;-0.1514;-0.1493;0.0
-0.2054;1.7389;-1.4916;-0.1786;1.1462;-1.3353;0.0
0.5433;0.3442;-0.055;0.0287;-0.2522;-0.2032;0.0
-0.1557;1.7149;-1.4407;-0.8467;1.0888;-1.3623;0.0
-0.2727;0.7378;1.4389;-0.0086;0.294;0.1472;0.0
-0.0917;1.2663;-0.1575;0.2666;0.4504;0.1742;0.0
-0.4124;-0.0447;-0.2701;-0.0013;-0.2827;-0.338;0.0
-1.4256;0.2947;-0.8464;-0.1336;-0.2394;0.309;0.0
0.2949;1.4824;0.4495;-0.1097;0.4986;0.1742;0.0
-1.7784;-0.6926;-0.5835;0.0652;-0.8161;0.282;0.0
0.0491;1.3282;0.2972;-0.1097;0.6502;-1.0119;0.0
-0.3677;-0.1933;-0.1038;-0.1639;-0.4526;-0.2571;0.0
-0.4678;-0.1101;-0.3353;-0.1359;-0.4373;-0.0684;0.0
-1.1341;1.4495;-1.5744;0.1079;1.2336;-1.4162;0.0
-0.6679;0.5739;-0.2833;-0.217;-0.3334;1.1985;0.0
-0.9505;0.9067;0.1296;-0.1313;-0.2314;1.2525;0.0
-1.0739;1.0866;-0.1563;-0.0432;-0.1605;0.8481;0.0
0.4569;1.4401;1.7754;0.1136;0.4131;-0.0414;0.0
-0.8151;0.4649;-0.2406;0.0229;-0.4709;1.0098;0.0
-1.2726;1.3157;-2.019;0.0287;1.3326;-1.3893;0.0
-1.5721;-0.7332;-0.1535;-0.0594;-0.9309;0.7403;0.0
-1.9418;1.0989;-2.7046;-0.2135;1.01;-1.3084;0.0
-0.2418;0.1877;-0.2516;-0.1947;-0.061;-0.5806;0.0
0.891;1.1525;0.9483;-0.4323;0.0893;-0.1493;0.0
-0.8105;-0.403;0.3531;0.0594;-0.9157;0.282;0.0
-0.0809;0.0908;-0.2207;-0.1097;-0.2351;-0.3649;0.0
-1.1593;-0.6388;-0.1313;0.0544;-0.9554;0.3899;0.0
-0.019;0.1161;-0.0007;-0.1097;-0.2332;-0.2841;0.0
-0.9069;-0.0638;0.2335;-0.0167;-0.6175;0.2012;0.0
-1.2899;-0.5526;0.0285;-0.0632;-0.9095;0.4438;0.0
0.3511;1.2224;0.1315;-2.6333;0.5658;0.5516;0.0
-1.0955;0.2409;-0.2417;0.0183;-0.3542;0.1742;0.0
-1.057;-0.5561;-0.0134;-0.0313;-0.9578;0.1742;0.0
-0.9674;0.3453;-0.529;0.1136;-0.5014;1.1985;0.0
-1.0531;-0.0476;0.2953;-0.157;-0.7312;0.6864;0.0
-1.0074;0.3795;-0.2358;-0.0036;-0.4685;1.2255;0.0
-1.0747;0.9302;0.0523;0.1513;-0.1538;0.4707;0.0
0.4598;1.1664;0.3307;-0.0505;0.352;0.1203;0.0
0.0365;1.8718;0.1324;-2.6783;1.2678;-1.1197;0.0
-0.6744;0.8261;-0.2912;-0.3185;-0.3279;1.6029;0.0
-0.8634;-0.416;0.2599;0.0986;-0.9132;0.4438;0.0
-0.403;0.0568;-0.2676;-0.2981;-0.2168;-0.2841;0.0
-1.0952;1.0889;0.2133;0.0756;-0.1386;1.0907;0.0
2.009;2.1895;0.1619;-0.0029;0.8915;-1.1736;0.0
0.5681;1.8137;0.5065;0.1798;1.0057;-1.1197;0.0
-0.2155;0.2597;-0.3785;-0.0236;0.0191;-0.4188;0.0
-1.0513;0.6019;0.0877;0.0267;-0.3597;0.7942;0.0
-1.2186;-0.4485;-0.1049;-0.2278;-0.879;0.7942;0.0
0.2287;1.8912;-0.8254;-0.2497;1.0674;-1.4162;0.0
0.4097;1.5538;0.3422;-0.227;0.8609;-0.5536;0.0
-0.9692;-0.3418;0.2214;1.0436;-0.9322;0.3359;0.0
-0.0157;1.5368;-1.3806;-0.0747;1.0674;-1.4432;0.0
-0.3389;0.6145;-0.0106;-0.0648;-0.3646;1.1716;0.0
-0.8148;0.5011;-0.3746;-0.1951;-0.4294;1.0907;0.0
-0.9962;1.2237;0.0352;-0.3085;-0.0952;1.3333;0.0
-1.2039;-0.498;-0.1912;0.0068;-0.8747;0.5785;0.0
0.2967;2.1452;-0.7248;-0.0755;1.9294;-1.4162;0.0
-1.0272;-0.251;0.2276;-0.1097;-0.7971;0.3899;0.0
-0.7849;0.6188;-0.2794;-0.0882;-0.3457;0.8751;0.0
-1.0819;-0.4997;0.047;-0.1832;-0.8955;0.6594;0.0
0.4519;1.8608;0.3439;-0.2312;0.8438;0.6864;0.0
-0.2187;-0.0626;0.1425;-0.2701;-0.455;-0.311;0.0
-1.2352;0.8316;-0.3027;-0.0198;-0.2021;0.6594;0.0
-1.264;-0.4099;-0.1878;-0.295;-0.8436;0.7672;0.0
-1.2424;1.6;-2.1007;-0.1097;1.1077;-1.3623;0.0
-0.926;1.5082;-1.8022;0.0667;1.2079;-1.2814;0.0
-0.5049;0.9967;-0.0404;-0.2797;-0.2968;1.1177;0.0
-0.8195;0.9154;-0.3052;-0.1097;-0.2681;1.2794;0.0
-0.0416;-0.0707;-0.5847;-0.227;-0.0842;-0.4727;0.0
-0.4264;0.0865;-0.3117;-0.1909;-0.1337;-0.1493;0.0
-0.2954;2.6571;-0.947;-1.9532;3.0187;2.6542;0.0
-0.5797;0.0744;-0.4459;0.0102;-0.152;-0.338;0.0
-1.5491;1.0726;-2.1844;-0.1789;1.2513;-1.7397;0.0
-0.1403;1.5686;-0.0881;-0.1609;0.6599;0.0125;0.0
0.224;1.4166;2.5158;-2.0981;0.7241;-0.0684;0.0
-0.3908;0.0561;-0.3299;-0.1616;-0.1789;-0.2301;0.0
-0.6316;0.8625;-0.1423;-0.1324;-0.2772;0.929;0.0
-0.1849;1.2961;0.5026;0.0248;-0.1245;0.5785;0.0
-0.1514;0.9115;1.4274;0.0544;0.2127;0.2551;0.0
-0.9062;-0.4319;0.1784;-0.0624;-0.926;0.3359;0.0
-1.517;1.184;-2.3976;-2.0928;1.1676;-1.3893;0.0
-1.0383;1.0577;-0.1985;-0.1097;-0.0909;0.9559;0.0
-0.1374;0.1344;-0.137;-0.2654;-0.009;-1.0927;0.0
-0.2716;1.4786;-0.2968;-2.5287;1.1749;-1.0388;0.0
-0.1784;2.3006;0.1108;-0.0036;2.0284;0.6325;0.0
-0.7432;0.6347;-0.3563;0.0183;-0.386;1.1716;0.0
-0.8004;0.8049;-0.4434;-0.2635;-0.2791;0.929;0.0
-0.8331;0.9146;-0.0741;-0.2674;-0.3414;0.929;0.0
-1.3439;1.3727;-2.3294;-0.1786;1.3216;-1.4162;0.0
-0.2014;0.1793;-0.2308;-0.0255;-0.2039;-0.2032;0.0
0.0365;1.3895;0.0959;0.1986;0.2433;2.2768;0.0
-1.1859;1.4227;-1.455;0.0352;1.1743;-1.4701;0.0
-0.1824;1.2203;-0.0221;-0.4319;0.8066;-0.5267;0.0
-0.1323;0.2848;-0.017;-0.1097;-0.108;-0.2301;0.0
-1.0027;-0.1697;-0.0527;-0.2747;-0.7086;0.6055;0.0
0.1135;1.4788;-0.2142;0.2332;0.8322;-1.0927;0.0
-0.7309;1.5954;-1.4067;-0.0067;1.0332;-1.3893;0.0
-0.8043;0.4623;-0.4768;-0.2247;-0.4715;1.7107;0.0
-0.9458;1.1019;0.1897;0.0721;-0.1715;0.8212;0.0
-0.8328;-0.01;0.3382;1.352;-0.7373;0.6594;0.0
-1.0797;0.7929;-0.1667;-0.2416;-0.2406;1.0907;0.0
-0.8281;0.4279;0.0976;-0.4669;-0.386;0.0664;0.0
-0.6884;1.0393;-0.0859;0.0487;-0.2045;0.5785;0.0
-0.8497;0.6043;-0.3909;-0.0217;-0.3811;1.3603;0.0
-0.533;0.0423;0.3998;-0.2278;-0.6658;0.282;0.0
-0.2713;0.1446;-0.4288;-0.1097;-0.0817;0.0664;0.0
-1.2114;2.3654;-2.3628;0.0936;2.5721;2.8159;0.0
-0.9361;0.0112;0.1388;0.0098;-0.6664;0.309;0.0
-0.8576;1.1843;0.1765;0.1098;-0.2021;0.929;0.0
-0.3195;0.0559;-0.0777;-0.2954;-0.2846;-0.1493;0.0
-0.9386;-0.2448;0.2613;-0.1097;-0.769;0.3359;0.0
-0.8411;-0.2872;0.1664;-0.0851;-0.8704;0.6864;0.0
-0.6935;-0.0937;-0.4793;-0.0317;-0.2345;0.1203;0.0
-0.8983;-0.2757;0.2649;-0.0867;-0.9175;0.6864;0.0
0.3169;1.4757;0.1633;-0.0405;0.5445;0.5785;0.0
-0.9296;1.0248;0.136;-0.0405;-0.2412;0.7942;0.0
0.1628;1.3464;1.8605;0.457;0.3716;-0.2032;0.0
-1.228;-0.607;-0.0645;-0.1351;-0.9743;0.6055;0.0
0.0505;0.1151;0.2781;-0.2166;-0.3927;-0.1762;0.0
-2.0213;-0.5735;-1.3399;0.0014;-0.5668;0.902;0.0
-0.7669;-0.5084;0.1728;-0.207;-1.0213;0.2012;0.0
-0.0092;1.0886;0.0338;-0.1313;0.4577;0.6594;0.0
-0.8072;0.9237;-0.4619;-0.1305;-0.265;1.3064;0.0
0.2607;1.0041;0.3287;0.0902;-0.3469;1.0368;0.0
-0.6413;0.0444;0.3006;-0.1347;-0.7929;0.282;0.0
-1.2057;1.0583;-0.0822;-0.197;-0.0958;0.7942;0.0
-0.9361;-0.3384;-0.9032;0.061;-0.2699;-0.2841;0.0
-0.0733;2.0056;-1.0335;-0.0021;1.6087;-1.3893;0.0
-0.2079;0.0883;-0.1729;0.0229;-0.2742;-0.1762;0.0
-0.3555;0.0678;-0.2541;2.7068;-0.2473;-0.2571;0.0
0.0048;0.1559;-0.4951;-0.1659;-0.1593;-0.2301;0.0
-0.7806;-0.2126;0.2546;-0.317;-0.8839;0.7672;0.0
0.2291;0.4433;0.4596;-0.0548;-0.0359;-0.4997;0.0
-0.6226;0.028;-0.1718;-0.1363;-0.3108;-0.0954;0.0
-0.6852;1.9301;-0.5543;0.0879;2.0944;2.6542;0.0
-0.651;0.4312;0.1959;0.2132;-0.3035;-0.4188;0.0
-1.0462;-0.4753;-0.0024;-0.0867;-0.8582;0.5516;0.0
-1.1517;-0.4594;-0.1457;1.538;-0.8533;0.6055;0.0
-0.9325;-0.0564;0.2964;-0.0363;-0.7874;0.4438;0.0
-0.9458;0.8137;-0.4409;0.064;-0.2614;0.7942;0.0
-0.8245;0.4991;-0.4687;-0.2385;-0.389;1.0368;0.0
-0.9314;0.8393;0.1548;-0.1766;-0.2271;0.8751;0.0
-0.7057;-0.0794;-0.624;-0.1374;0.002;-0.5806;0.0
-0.5391;0.117;-0.2634;-0.2939;-0.185;-0.2032;0.0
-0.1244;0.0903;-0.1381;-0.1605;-0.3102;-0.0414;0.0
-1.2276;0.8916;-0.3397;-0.2008;-0.2247;0.929;0.0
-0.849;-0.0133;0.1113;-0.1789;-0.6664;0.7672;0.0
-1.1978;1.2718;-2.3077;-2.0232;1.5494;-1.4432;0.0
-0.993;0.7413;0.0602;0.044;-0.3163;1.0368;0.0
0.057;0.2843;-0.0429;-0.0278;-0.1777;-0.2032;0.0
-1.0909;0.5746;-0.4456;-0.3566;-0.3127;0.8212;0.0
-0.6301;-0.1486;-0.8366;-0.1897;-0.1001;-0.2571;0.0
1.017;3.0688;1.2659;-0.0202;0.9752;-0.2571;0.0
0.111;0.1278;-0.3302;-0.1401;-0.1001;-0.8501;0.0
-0.976;0.7303;-0.2973;-0.0624;-0.3958;1.6298;0.0
-1.5206;-0.625;-0.3487;-0.0302;-0.8081;0.0125;0.0
-1.304;0.7577;-0.1342;-0.1097;-0.1514;1.2525;0.0
-0.9674;0.9199;0.04;-0.0855;-0.1923;0.4977;0.0
-0.8677;0.2513;-0.4439;-0.1551;-0.5002;1.3872;0.0
-0.8285;1.0754;-0.0903;-0.1978;-0.2375;1.3064;0.0
-1.0048;0.8401;-0.1288;-0.2431;-0.2601;0.8751;0.0
-0.9706;-0.2757;0.1529;0.7445;-0.8124;0.4438;0.0
-0.3526;0.0362;-0.335;-0.162;-0.0616;-0.904;0.0
-1.0282;-0.2657;-0.7886;-0.2143;-0.1159;-0.7693;0.0
-1.481;0.997;-0.3532;-0.0674;-0.1697;0.6864;0.0
-1.0225;0.4807;-0.2608;-0.2601;-0.3756;1.3603;0.0
-0.6489;1.7128;-1.2874;-0.1789;1.2654;-1.3353;0.0
-0.8133;0.6168;-0.1519;0.064;-0.3615;1.0368;0.0
-0.9458;0.9516;-0.0328;-0.4265;-0.177;1.1716;0.0
-0.7248;0.8118;-0.0583;-0.0671;-0.3939;0.902;0.0
-0.7007;-0.3596;0.2096;-0.2597;-0.9389;0.5516;0.0
-0.0218;0.2031;0.0293;-0.1866;-0.1948;-0.0954;0.0
0.3277;0.8459;0.3599;-0.2097;-0.0151;0.3629;0.0
-2.0494;0.0658;-1.455;-0.3043;-0.4165;1.3333;0.0
-0.0899;0.1558;-0.0853;-0.0836;-0.2479;-0.2301;0.0
-0.1255;-0.1017;-0.1288;-0.1862;-0.3328;0.0125;0.0
-0.6622;1.3451;-1.6463;-0.2128;1.1316;-1.6858;0.0
-0.7025;0.778;-0.2636;-0.1097;-0.3084;1.0368;0.0
-0.2263;0.0962;-0.1094;-0.1909;-0.1966;-0.338;0.0
-0.3717;0.9607;1.294;-0.1097;0.2915;0.3899;0.0
-1.4522;0.7293;-0.5307;-0.1528;-0.2565;0.9559;0.0
-1.1247;0.2273;-0.2459;0.0517;-0.3744;-0.8232;0.0
-0.425;0.0291;-0.2485;-0.1359;-0.2974;-0.2032;0.0
-1.0905;-0.1849;0.1085;0.0675;-0.824;0.2281;0.0
-0.3519;1.2075;-0.9838;-0.1809;0.878;-1.4701;0.0
0.3298;-0.5515;0.7416;-0.2285;-0.959;-0.311;0.0
-0.5258;0.9728;0.1006;-0.1097;-0.2051;1.0368;0.0
-1.2399;-0.0567;-0.096;-0.3781;-0.6359;0.8751;0.0
0.9882;2.2011;0.0509;0.2063;1.0876;-1.2814;0.0
-0.7957;0.3695;-0.5672;-0.0263;-0.4275;1.2255;0.0
-0.3602;0.7229;0.6287;-0.0071;-0.3304;1.6298;0.0
0.3579;1.3365;0.2798;1.9452;0.3154;0.4438;0.0
-1.102;1.042;-0.2959;0.0475;-0.199;0.8481;0.0
-0.8785;1.2068;-0.0145;0.0229;-0.1208;0.902;0.0
-0.8663;1.5418;-2.2134;-1.7575;1.5714;-1.6049;0.0
-1.2356;0.7569;-0.1715;-0.3185;-0.1795;1.3333;0.0
-1.3515;1.0069;-0.3021;-0.1097;-0.1233;0.929;0.0
0.1027;1.5625;-0.0002;-0.1097;0.6367;0.8481;0.0
-0.3551;0.0673;-0.2645;1.6499;-0.1935;-0.2301;0.0
-0.3199;0.0936;-0.308;-0.1378;-0.0549;-0.5267;0.0
-0.4674;0.8526;0.0248;0.1448;-0.3664;0.9829;0.0
-0.0366;0.1193;-0.4136;0.0371;-0.1526;-0.4458;0.0
-1.0088;-0.2535;-0.0974;-0.1766;-0.7666;0.1742;0.0
-1.1683;0.8117;-0.1959;-0.0448;-0.2491;1.4681;0.0
-0.417;-0.0942;-0.7585;-0.1916;0.2176;-0.2571;0.0
-0.9454;0.5882;-0.2763;-0.2408;-0.3463;1.5759;0.0
0.4961;1.4212;1.8088;0.1217;0.3154;0.0394;0.0
-1.0617;-0.3017;-0.3001;-0.1786;-0.7544;0.4977;0.0
0.0059;0.9327;0.0874;1.8125;0.5597;-0.5267;0.0
-0.6003;-0.1402;-0.4409;-0.2205;-0.0909;-0.338;0.0
-0.1388;0.5318;0.1835;-0.3662;-0.3102;-0.4458;0.0
-0.9325;1.0225;-0.0493;-0.2608;-0.2668;1.3603;0.0
-1.0664;1.0623;-0.0086;-0.1332;-0.1025;0.6594;0.0
-1.2806;-0.6674;-0.1176;-0.1097;-0.9829;0.2551;0.0
-1.1344;1.2639;0.0504;-0.0382;0.0093;0.4168;0.0
-0.4408;-0.1455;-0.3355;-0.0836;-0.2785;0.0394;0.0
-0.6643;-0.1552;0.2231;0.0137;-0.832;0.3629;0.0
-0.0733;0.5851;0.4992;-0.3435;-0.4575;-0.2032;0.0
0.3507;1.9045;0.2787;0.0879;0.7601;0.5246;0.0
-0.9487;0.4938;-0.6189;-0.3335;-0.3603;1.0907;0.0
-0.7626;1.1527;-0.0982;-0.0202;-0.2461;1.0907;0.0
0.0275;1.624;0.0369;-0.1332;0.8102;0.0394;0.0
-0.809;0.9314;0.0917;-0.0651;-0.2143;0.6325;0.0
-1.052;-0.3759;-0.8798;-0.3135;-0.0206;-0.7962;0.0
0.1801;0.1171;0.0324;-0.1097;-0.1599;-1.1197;0.0
-1.2849;2.3518;-1.8244;-0.0048;3.5356;0.9829;0.0
-0.7946;-0.4212;0.0127;-0.1812;-0.9303;0.6594;0.0
-0.7032;1.007;0.1596;-0.0444;-0.2785;1.0098;0.0
-0.4912;0.1142;-0.3378;0.0256;-0.155;-0.0954;0.0
-0.2914;1.5977;-0.2487;-0.3235;0.6294;1.522;0.0
-0.6719;0.5132;-0.4664;-0.152;-0.4043;0.9829;0.0
-0.0585;-0.2067;0.2762;0.3578;-0.8509;0.1472;0.0
-1.0282;-0.0322;0.3554;-0.1578;-0.78;0.6055;0.0
-0.1795;1.3706;-0.1072;-0.0363;0.5713;0.6594;0.0
-0.9156;0.1355;0.0726;-1.3338;-0.5668;0.5516;0.0
-1.3381;-0.5952;-0.1474;-0.2035;-0.8491;0.6325;0.0
0.0887;0.837;0.0237;2.2205;0.3422;0.4168;0.0
-0.0528;0.0637;0.0431;-0.4111;-0.3823;-0.0684;0.0
-0.5351;0.0106;0.4191;0.1598;-0.8026;0.7672;0.0
-0.5718;0.9838;0.3054;-0.134;-0.2247;0.7672;0.0
0.1157;1.7573;0.0456;0.0098;0.4687;1.6568;0.0
-1.4026;-0.5212;-0.3097;0.0125;-0.6707;0.4977;0.0
-1.102;0.3731;-0.406;0.234;-0.3652;1.0907;0.0
-0.6661;1.4439;-1.491;0.0314;1.2171;-1.9014;0.0
-1.0506;-0.3278;-0.0659;-0.0367;-0.7525;0.2551;0.0
-0.7709;1.3615;-1.582;-0.1097;0.9556;-1.4701;0.0
0.1592;1.5363;0.0299;0.0183;0.6019;0.0125;0.0
-0.4314;-0.0764;-0.3507;-0.1651;-0.3793;-0.2301;0.0
-0.759;1.7077;-0.9947;-0.1447;1.1957;-1.4162;0.0
0.2345;1.1095;0.2304;1.1148;0.3031;1.1446;0.0
-0.051;0.159;0.0815;0.0229;-0.2919;0.1472;0.0
-0.9005;-0.2899;0.1209;-0.2012;-0.8613;0.7942;0.0
-0.5722;-0.0728;0.4104;-0.0636;-0.8362;0.4977;0.0
-1.1283;0.1653;-0.2614;-0.1697;-0.488;0.7942;0.0
-0.2961;0.1875;-0.6102;-0.1997;-0.0768;-0.7693;0.0
-0.781;-0.0225;0.1079;-0.1343;-0.6383;0.6055;0.0
-0.6103;-0.3777;0.1944;-0.0117;-0.9554;0.3359;0.0
-1.0538;-0.1466;0.215;-0.1563;-0.7849;0.6325;0.0
-2.3993;0.8671;-2.6706;-0.144;1.0344;-1.3353;0.0
-1.2626;-0.2925;0.1217;0.7092;-0.7287;0.4707;0.0
0.9511;-0.8808;0.5172;-0.3373;-1.0372;0.0125;1.0
0.8204;-0.586;0.3425;-0.0582;-0.8362;-0.1493;1.0
-0.0621;-1.0349;-0.3145;-0.0836;-1.0372;4.1637;1.0
0.1581;0.8432;0.1091;0.026;-0.0341;1.0907;1.0
-0.7781;-0.9431;0.0403;-1.3365;-0.6945;0.0394;1.0
-0.0078;-1.4345;-0.2153;0.0564;-1.0525;-0.311;1.0
-0.2756;-1.5859;-0.683;-2.4757;-1.2321;4.1368;1.0
-0.2086;-0.9964;-0.5032;-2.4122;-0.8478;-0.2032;1.0
-0.1136;-1.1947;-0.6521;-2.5864;-0.8808;0.1203;1.0
-0.1586;-1.2962;-0.3765;-2.3746;-1.1154;3.8672;1.0
0.3428;-0.9547;-0.1712;-0.1097;-0.9285;-0.2032;1.0
0.0106;-0.8672;-0.472;-0.1097;-0.832;-0.1493;1.0
0.585;-1.614;0.418;-2.4249;-1.2614;-0.2301;1.0
-1.6617;0.9174;-0.779;0.3735;0.4308;1.1446;1.0
-0.4638;1.9343;-0.7577;-0.1797;1.156;-1.524;1.0
-0.0082;-0.4885;0.6559;0.3616;-0.8142;0.1472;1.0
0.5163;-0.3775;0.1753;0.8591;-0.7171;-0.6614;1.0
0.5487;-1.1267;0.2245;-2.4976;-1.0262;-0.0145;1.0
0.12;-1.0257;-0.3221;-0.322;-0.8662;0.0394;1.0
0.8186;-0.6148;0.327;-0.1351;-0.9034;-0.0145;1.0
0.2679;-0.8594;-0.2201;-2.7648;-0.8607;0.0394;1.0
0.5433;-0.5674;0.0299;0.0471;-0.8155;0.0125;1.0
1.1494;1.0047;1.5892;0.367;-0.2045;-1.0388;1.0
0.0973;-1.2697;-0.2302;-2.3534;-1.1362;4.1098;1.0
-0.2241;-1.2916;-0.4821;-2.4788;-0.9254;-0.0145;1.0
0.6059;-0.9019;-0.0929;-0.0005;-0.9181;-0.1493;1.0
0.2503;-1.2977;-0.0901;-2.5264;-1.0739;-0.1762;1.0
-0.101;-1.6193;0.4863;-0.4657;-1.2156;-0.5267;1.0
0.5382;-0.7827;0.1383;-0.0832;-0.8588;-0.2571;1.0
1.1815;-0.6161;0.1498;-0.4473;-0.8454;-0.0684;1.0
0.1279;-1.0888;-0.1931;-0.0332;-0.9444;0.0394;1.0
0.3162;-0.9589;-0.2527;-0.0836;-0.926;0.0933;1.0
0.4655;-1.1072;-0.1108;-0.1351;-0.937;0.1203;1.0
0.1423;-0.939;-0.1743;-0.8817;-0.8876;-0.2032;1.0
-0.0787;-1.3439;-0.3976;-2.3761;-0.948;0.0933;1.0
-0.0891;-1.4531;-0.2729;-0.4235;-1.0568;0.0394;1.0
-0.4916;-1.5137;-0.6257;-2.4492;-0.9755;-0.0145;1.0
0.2078;-0.7728;-0.2049;0.0771;-0.8723;-0.1762;1.0
0.1646;-0.7567;-0.0572;-2.3469;-0.9114;0.1742;1.0
0.4789;-1.3134;-0.0086;-0.3785;-1.069;-0.0954;1.0
-0.2673;-1.1548;-0.615;1.069;-0.9053;0.0394;1.0
0.2413;-1.1342;-0.1608;-2.5268;-1.036;3.1663;1.0
0.7614;-0.7018;0.1956;-0.1363;-0.8961;-0.2571;1.0
0.165;-0.9244;-0.5908;-0.2116;-1.0342;4.2446;1.0
-0.1039;-1.0941;-0.4569;-0.0309;-0.9016;0.0394;1.0
0.729;-1.0798;0.0506;-2.4922;-0.9633;-0.0414;1.0
0.1567;-0.5405;0.4009;-0.3662;-0.7666;0.2281;1.0
-0.1277;-0.896;0.8163;3.0663;-1.1411;-0.0145;1.0
0.4659;-1.5019;0.2781;-0.3827;-1.2028;-0.1223;1.0
0.3266;-1.4359;0.1666;-0.237;-1.2517;3.9211;1.0
0.7996;-0.6832;0.3318;-0.0844;-0.8649;0.1472;1.0
0.1441;-0.856;-0.2942;-0.2389;-0.8356;-0.1223;1.0
0.0826;-0.7134;-0.4448;2.9109;-0.7299;0.1472;1.0
0.0444;-1.2243;-0.2544;-0.2158;-0.9682;-0.338;1.0
0.2309;-0.9193;-0.2487;-0.2339;-0.8949;-0.2571;1.0
-0.9116;-1.3133;0.3017;-1.0336;-0.8136;0.5785;1.0
0.6646;-1.5468;0.5115;-0.4473;-1.3018;3.975;1.0
0.314;-1.3932;0.0066;-2.4849;-1.1069;-0.338;1.0
-0.1107;-1.3373;-0.4277;-0.2431;-0.9768;-0.0145;1.0
0.4094;-0.5411;0.8146;-0.2897;-0.7024;-2.0362;1.0
0.2971;-0.7192;0.9921;-2.3404;-0.8307;-0.2032;1.0
-0.2734;-1.2097;-0.6793;-0.0567;-0.8485;-0.1223;1.0
0.2118;-0.9405;-0.3521;-0.0036;-1.003;3.382;1.0
0.1355;-0.9642;-0.2128;-0.1355;-0.8876;-0.0145;1.0
-0.0211;-1.1487;-0.5701;-0.0548;-0.9627;-0.1493;1.0
0.2704;-1.5169;-0.0325;-0.0836;-1.1246;-0.2032;1.0
-0.195;-1.257;-0.7554;-0.1885;-0.8851;0.0125;1.0
-0.0089;-1.0089;-0.4953;-0.0828;-0.8234;0.0394;1.0
-0.0596;-0.957;-0.4903;-0.162;-0.8252;-0.0145;1.0
0.0898;-1.05;-0.2976;-0.9175;-0.9157;0.0394;1.0
0.0926;-1.1671;-0.2111;-0.1597;-0.9859;-0.0414;1.0
-0.3155;-0.1422;0.1141;0.0375;-0.4452;1.4411;1.0
0.2154;-1.1734;-0.1069;-0.2101;-1.0268;-0.2301;1.0
0.2222;-0.8044;-0.4083;-0.3135;-0.8271;0.2281;1.0
0.5854;-1.0166;0.0369;0.0248;-0.9963;-0.0414;1.0
-0.0654;-0.8999;-0.5088;-0.0582;-0.8112;0.0933;1.0
0.3057;-0.9131;-0.1412;-0.1097;-0.8833;0.0664;1.0
-0.0459;-1.188;0.6405;0.0267;-1.1509;-0.5806;1.0
0.1877;-0.7818;-0.1538;-0.1878;-0.8381;-0.0414;1.0
0.6477;-0.6366;0.0321;0.1306;-0.8619;-0.0414;1.0
0.1142;-1.052;-0.3619;-0.1616;-0.9108;-0.0684;1.0
0.1535;-0.6488;0.932;-0.1551;-0.6927;-2.4945;1.0
0.1459;0.3865;0.3894;-0.1374;-0.4642;-0.7154;1.0
-0.1251;-1.2564;-0.6804;-0.0567;-1.0213;2.5464;1.0
-0.1334;-1.4532;-0.29;0.0194;-0.9267;-0.0414;1.0
-0.0974;-0.8174;-0.6403;0.0883;-0.7367;-0.0414;1.0
0.0091;1.0226;0.197;0.8103;0.6508;-1.4701;1.0
0.2888;-0.9584;0.0265;-0.4131;-0.8747;-0.2301;1.0
0.2492;-0.965;2.6862;-0.1097;-0.221;-1.6858;1.0
-1.2622;0.4665;-1.4809;0.0913;-0.2418;1.3872;1.0
0.4565;-0.7522;-0.2507;-0.0836;-0.8552;0.0664;1.0
0.1279;-1.3695;-0.2257;-0.3935;-1.1008;-0.2301;1.0
-0.0344;-0.7787;-0.5594;-0.0574;-0.7849;-0.2032;1.0
-0.0585;-1.1091;-0.4246;-0.0582;-0.8216;0.0394;1.0
-1.3309;-0.5155;-0.2215;-0.1809;-0.8649;0.4707;1.0
-0.2061;-1.1541;-0.3558;-0.1097;-0.9016;0.0664;1.0
-0.1154;-0.6182;0.8;-0.0847;-0.8992;-1.4432;1.0
0.4846;-0.9001;0.1981;-0.1613;-0.8979;-0.1762;1.0
0.2553;-0.9811;-0.1659;-0.2143;-0.9645;-0.1762;1.0
1.1116;-0.1782;0.2593;-0.2174;-0.7849;-0.2032;1.0
-0.1554;-1.2191;-0.308;-0.1605;-0.8998;0.1742;1.0
0.3403;-1.0582;-0.1103;-2.453;-1.1038;3.3281;1.0
0.1196;-1.1447;-0.2816;-0.1862;-0.9407;0.0664;1.0
-0.0794;-1.1812;-0.4268;-0.2881;-0.9114;0.2012;1.0
0.8813;-0.6838;0.3481;-1.0847;-0.9224;0.0933;1.0
-1.0999;-1.1886;-0.328;-0.2835;-0.6933;0.5516;1.0
0.4684;-0.7272;-0.0516;-2.3469;-0.8411;0.0664;1.0
0.0671;-0.9918;-0.1499;-0.1355;-0.9566;-0.2301;1.0
-0.0373;0.6581;0.2596;-1.2785;0.261;-1.9284;1.0
-0.2212;-0.8195;-0.3493;0.0248;-0.6756;-0.0684;1.0
0.598;-0.6182;-0.153;-0.0317;-0.7929;-0.0684;1.0
0.1596;-0.735;-0.3603;0.0237;-0.8197;-0.1493;1.0
-0.0765;-0.9496;-0.5049;-0.1097;-0.7049;-0.0414;1.0
-0.908;0.1962;0.0487;-0.1382;-0.1404;-1.551;1.0
0.5379;-0.4137;0.4652;0.3597;-0.8668;0.6325;1.0
0.8802;-0.3591;0.0863;-0.0317;-0.7837;-0.0954;1.0
-0.3469;-1.0882;-0.622;-0.1605;-0.8552;0.0125;1.0
-0.497;-0.7077;0.0122;0.3485;-0.675;0.282;1.0
0.0214;-1.0675;-0.6509;-0.1897;-0.8558;-0.0684;1.0
-0.394;-0.2711;0.393;-1.578;-0.6951;-0.7962;1.0
-0.0931;-1.4111;0.3602;1.8283;-1.1802;-1.0927;1.0
0.1203;0.1515;0.7472;-0.4757;-0.0726;-2.3597;1.0
-1.2636;0.9689;-0.533;0.3997;0.4021;0.902;1.0
-0.8886;-0.9407;-0.2555;-0.603;-0.598;-1.551;1.0
-0.0161;-0.4179;0.8744;-0.0617;-0.912;-0.0684;1.0
0.3046;0.5381;1.0508;0.0575;-0.2626;-1.4701;1.0
-0.1626;-1.5205;-0.0373;-0.3577;-0.9804;-0.1493;1.0
-0.146;-0.3673;0.0071;1.5092;-0.6578;-0.6884;1.0
0.2611;-1.0224;-0.3777;-0.0571;-0.9077;0.0125;1.0
-0.2968;0.6229;0.5483;-1.957;0.3178;-2.1979;1.0
0.2787;-0.2177;1.4805;-0.1586;-0.9267;-0.7693;1.0
-0.0467;-1.136;-0.2417;-0.2462;-0.8472;0.0664;1.0
0.3525;-0.5041;-0.344;-0.4431;-0.7043;-0.1493;1.0
-0.1439;-1.0081;-0.5647;-0.1632;-0.8271;0.0125;1.0
0.1931;-0.9854;-0.3934;-0.3627;-0.8802;0.0664;1.0
0.7553;-0.4281;0.1504;-0.1609;-0.7965;-0.0145;1.0
0.8546;-0.8021;0.286;-0.1363;-0.9438;-0.2032;1.0
0.5876;-0.5153;0.0394;-0.0582;-0.8051;0.0125;1.0
-0.2061;-1.4632;-0.4555;-2.4991;-1.0537;0.0125;1.0
-0.2418;0.4915;0.0582;0.7949;-0.3793;1.7377;1.0
0.8687;-0.5829;0.4396;-0.0832;-0.8692;-0.0145;1.0
0.9666;-1.8465;1.248;0.4527;-1.284;-1.2006;1.0
0.8161;-0.6761;0.2748;2.6914;-0.8796;-0.1762;1.0
-0.0992;-1.0474;-0.4091;-0.0029;-0.8894;0.1742;1.0
0.2928;-0.9019;-0.1137;0.0506;-0.8827;-0.0684;1.0
0.7585;-0.8897;0.375;-0.3331;-0.9761;-0.0954;1.0
1.0375;-0.5641;0.3534;-0.2158;-0.8931;-0.0145;1.0
-0.2652;-0.9413;-0.6765;-2.4615;-0.8259;0.0933;1.0
0.2805;-0.8494;-0.2594;-2.4434;-0.8796;-0.338;1.0
0.6718;0.0653;0.55;-1.4703;-0.5998;-0.2571;1.0
0.7916;-0.5592;1.8299;-0.7883;-1.1276;-0.8771;1.0
0.3241;-1.0946;0.0787;-0.6457;-0.9401;-0.2841;1.0
0.2568;-0.9685;-0.3206;-2.4376;-0.8772;-0.2032;1.0
-0.0751;-0.4318;-0.2204;0.9994;-0.6756;-0.1493;1.0
0.0685;0.0742;0.215;-0.2439;-0.053;-2.3866;1.0
-0.1403;-1.1066;-0.1982;-0.0586;-0.923;0.0125;1.0
0.6056;-0.619;0.0071;-0.8241;-0.8069;-0.0954;1.0
-0.0172;0.3672;0.3663;-2.2865;-0.0194;-1.9823;1.0
0.8104;-0.8172;0.3242;-0.162;-0.9089;-0.0414;1.0
-0.3854;-0.8604;-0.804;-2.4565;-0.7092;-0.1493;1.0
0.1531;-0.9808;-0.4316;-0.1878;-0.9315;-0.0954;1.0
0.2075;0.2008;0.9547;0.9887;-0.5839;0.0394;1.0
0.1182;-0.9675;-0.3004;-2.1204;-0.8411;-0.1493;1.0
-0.002;-0.9866;-0.4479;-0.0325;-0.8747;0.0394;1.0
0.3122;-0.7458;-0.0842;-0.1097;-0.8454;0.1472;1.0
0.1031;-1.567;-0.3661;-0.1605;-0.9346;0.0125;1.0
0.5058;-0.6814;-0.0353;-0.1613;-0.8643;0.1203;1.0
1.1879;-0.4242;0.4877;-0.3204;-0.8851;-0.1223;1.0
0.8122;-0.4711;0.2537;-0.1097;-0.8607;-0.0414;1.0
-0.2313;-1.5014;-0.3386;-0.029;-1.0837;-0.2032;1.0
0.9104;-0.7986;0.3607;-0.0029;-0.8882;-0.0684;1.0
-0.0445;-1.3353;-0.3089;-0.1366;-1.0018;-0.338;1.0
0.8705;-0.708;0.2422;-0.3093;-0.9059;0.1472;1.0
-0.1104;-1.1535;-0.4122;-0.312;-0.9199;-0.0414;1.0
0.4443;-0.6835;-0.128;-2.4307;-0.81;-0.311;1.0
0.1171;-0.8011;-0.294;-0.0836;-0.8368;-0.1493;1.0
-0.8144;1.1453;-0.9458;-0.1662;0.7998;0.1742;1.0
0.3028;-0.5664;-0.3701;0.0625;-0.5522;1.6298;1.0
0.156;-1.1987;-0.317;-2.4226;-0.9071;0.1203;1.0
0.233;0.2307;0.9;-0.1097;-0.2235;-1.7397;1.0
0.6952;-0.4591;0.1391;0.0194;-0.78;0.0394;1.0
-0.818;-1.4785;0.2675;0.5312;-1.3115;0.4707;1.0
0.0052;-1.3503;0.4837;-0.8398;-1.0568;-2.6292;1.0
0.2953;-1.2307;-0.044;-2.5126;-1.036;-0.0684;1.0
-0.0315;-1.1561;-0.1988;0.0721;-0.9095;0.1742;1.0
0.097;-1.1137;0.193;-0.0567;-1.1252;0.0125;1.0
0.3277;-1.1406;-0.1193;0.0564;-1.0342;-0.1762;1.0
-0.0197;-1.5414;-0.3358;-0.2151;-1.0305;0.0933;1.0
-0.1766;-1.3763;0.4933;0.9114;-1.2046;-0.6075;1.0
-0.6226;-0.3479;0.0543;-0.157;-0.8888;-0.0684;1.0
0.6156;-1.0629;0.0947;2.8971;-0.7593;0.0125;1.0
0.0858;-0.6835;1.2275;-0.0394;-1.0751;0.2551;1.0
-0.146;-1.1656;-0.5428;-0.4235;-0.901;0.0394;1.0
0.6844;-0.92;0.2138;-0.2124;-0.9841;0.0933;1.0
-0.083;-1.3059;-0.4513;-0.1097;-1.022;-0.1493;1.0
0.314;-1.0198;-0.014;-0.3485;-0.9218;0.0664;1.0
0.7844;-1.063;0.1304;-0.2158;-1.0189;-0.1493;1.0
0.5829;-0.6827;-0.0272;-0.0309;-0.843;-0.1223;1.0
0.3633;-0.8973;0.0327;-2.4541;-0.8839;-0.2571;1.0
0.0595;-0.981;-0.5142;-0.0578;-0.8857;0.0125;1.0
-0.0056;-1.0901;-0.3819;-2.443;-0.9059;-0.2841;1.0
0.1851;-0.2256;-0.6391;1.2032;0.0044;-2.3058;1.0
0.8014;-1.2363;0.3301;0.076;-1.0995;0.2012;1.0
-0.1716;-0.7938;1.0587;-0.1951;-1.2889;0.5246;1.0
0.7197;-0.7725;-0.1139;-2.5687;-0.7703;-0.7693;1.0
0.5523;-0.9249;0.0304;-0.3954;-0.9486;0.0664;1.0
-0.2018;-0.3481;0.4062;-0.2985;-0.2229;-1.8745;1.0
-0.5617;-0.2547;-0.0125;1.7226;-0.8008;0.309;1.0
-0.0949;-0.847;-0.5917;0.0698;-0.7892;0.1472;1.0
0.1045;-0.3857;0.2057;0.0771;-0.5851;-0.2841;1.0
0.1326;-0.8718;1.0747;-0.1097;-1.2633;0.6594;1.0
0.1236;-1.0278;-0.358;-0.0021;-0.8662;0.0125;1.0
-0.0895;1.0138;0.2588;3.0317;0.4186;1.522;1.0
-0.1968;-0.1754;0.2967;1.7303;-0.5913;0.9829;1.0
-1.7712;0.038;-1.1924;1.0283;0.7833;-1.1467;1.0
0.017;-1.2598;-0.183;-0.0255;-1.0397;-0.0954;1.0
-0.0974;-0.9686;-0.4181;-0.0325;-0.8863;-0.1493;1.0
-1.2741;-0.5483;0.036;-0.2066;-0.923;0.3629;1.0
0.4454;-1.1669;-0.0288;-2.2969;-1.0207;-0.1493;1.0
0.4151;-1.2284;0.2686;-0.445;-1.0452;-0.0145;1.0
-0.2112;-1.1531;-0.6509;-0.1847;-0.8417;0.0933;1.0
-0.155;-1.0538;0.1737;2.9659;-1.0562;-0.4997;1.0
-0.2245;-1.4744;-0.3583;-0.0832;-0.9578;-0.0954;1.0
0.1941;-0.8085;-0.1926;-0.0828;-0.7996;-0.0145;1.0
0.4745;-1.3641;0.0835;0.1409;-1.0641;-0.0684;1.0
-0.0056;-0.9377;-0.4909;-0.1609;-0.8362;0.1203;1.0
0.2413;-0.9468;-0.251;-0.4323;-0.8656;0.1472;1.0
-0.0265;-1.039;-0.4423;-0.1605;-0.8766;-0.0414;1.0
-0.8083;-0.7659;0.0844;0.5846;-0.3591;-2.6292;1.0
0.0944;-0.6676;1.1067;-0.6238;-1.1588;0.0394;1.0
-0.1564;-1.226;-0.5001;-0.0309;-1.0317;4.1098;1.0
0.7341;-1.0803;0.3211;-0.3204;-1.1441;4.1637;1.0
0.2057;-0.8601;-0.2367;-0.2389;-0.8564;-0.1223;1.0
-1.2158;-0.464;-0.2378;-0.6987;-0.3829;-2.1979;1.0
0.1711;-0.7891;-0.4574;-0.0559;-0.81;-0.0145;1.0
0.0977;-1.0316;-0.4043;-0.3204;-0.901;-0.1493;1.0
0.0426;-1.3079;-0.1923;0.0202;-0.9981;0.0664;1.0
0.7736;-0.5464;1.1679;-1.4092;-0.6731;0.5246;1.0
0.1862;-0.9596;-0.3153;-0.2916;-0.8796;-0.0145;1.0
-1.616;-0.8211;-0.0575;0.6442;-0.5399;0.3629;1.0
0.1463;-1.2151;-0.112;-0.4757;-0.9951;-0.338;1.0
0.3892;-0.7532;-0.1519;1.7057;-0.8118;-0.1223;1.0
-0.9606;-0.2787;0.0779;-0.1097;-0.8277;0.6325;1.0
0.2107;-0.4138;0.914;-0.1697;-0.8338;-1.9823;1.0
0.0682;-0.7305;-0.5698;-0.0302;-0.755;0.1472;1.0
0.6444;-1.0721;0.0338;0.0287;-1.0568;3.9481;1.0
0.3036;-0.9854;-0.0145;-0.3108;-0.9468;-0.2032;1.0
-0.3512;-1.355;0.4424;-0.2247;-1.2205;-1.524;1.0
0.1006;-1.1081;-0.3973;-0.1616;-0.9273;0.1203;1.0
-0.15;-0.881;-0.3914;-0.1605;-0.7849;0.282;1.0
0.0854;-0.8425;-0.456;-0.5042;-0.8216;0.2012;1.0
0.6048;-1.3079;0.1161;-0.0309;-1.0745;0.0125;1.0
-0.2346;-0.8346;-0.4923;-0.2881;-0.7855;-0.0414;1.0
0.1355;-0.7537;0.9671;2.28;-1.0146;-1.9553;1.0
0.1448;0.0819;0.8078;-0.024;-0.4978;0.0933;1.0
0.2704;-0.6906;0.8017;0.3831;-1.1582;0.4438;1.0
-0.0503;-1.1592;-0.3906;-0.2812;-0.9016;0.1203;1.0
0.8611;-1.2901;0.2489;0.0237;-1.1142;-0.0414;1.0
0.7168;-0.6567;1.1418;-1.5026;-1.2553;0.6325;1.0
0.1182;-0.9663;-0.4748;-0.1628;-0.8802;-0.0954;1.0
-0.2259;-0.4699;0.6742;-0.1332;-0.7043;-1.2814;1.0
0.2866;-0.6904;-0.2358;0.0606;-0.8014;-0.2841;1.0
1.0098;-0.3976;0.3495;-0.1363;-0.813;-0.0414;1.0
0.0077;-0.9732;-0.3574;-0.2616;-0.8558;0.0394;1.0
0.5872;-0.7427;0.0804;2.8079;-0.8955;0.1472;1.0
-0.0747;-1.1832;-0.5453;-0.1866;-0.9328;-0.0684;1.0
-0.3047;0.495;0.4742;0.4454;0.2341;-1.8206;1.0
-0.1071;-1.0181;0.4627;0.174;-1.1356;0.282;1.0
0.071;-0.7797;-0.4762;-0.2677;-0.7544;-0.1493;1.0
0.7762;-1.0476;0.311;0.0194;-1.0574;-0.0684;1.0
0.2298;-1.208;-0.0844;2.2793;-1.0488;0.0125;1.0
0.2046;-0.7149;-0.3016;-0.0052;-0.8069;-0.1493;1.0
0.0462;-0.7233;0.9547;1.0229;-0.78;0.902;1.0
0.4069;-0.4788;0.0585;-0.2939;-0.6395;-0.4727;1.0
0.0307;-0.9566;-0.3911;-0.0567;-0.813;-0.1493;1.0
0.0134;-0.9063;-0.3167;-0.0582;-0.7965;0.0394;1.0
-0.0308;-1.1433;-0.4841;-0.1097;-0.8967;-0.0414;1.0
-0.2641;-0.2994;0.3559;-0.3158;-0.5363;-1.6049;1.0
-0.0801;-1.1875;-0.4622;-0.4215;-0.8998;-0.0684;1.0
-0.3919;0.3901;0.3736;-0.252;-0.1477;-1.3353;1.0
-0.4401;-0.2982;0.0195;-0.0913;-0.5974;0.7133;1.0
0.0944;-0.6681;-0.3889;-1.9882;-0.7501;0.0125;1.0
0.8766;-0.7108;0.3026;-0.1847;-0.9199;-0.0145;1.0
1.1879;-0.9173;0.4394;-0.2431;-1.1301;4.2176;1.0
0.1445;-0.9185;-0.2434;1.2785;-0.8649;-0.0954;1.0
0.0836;-0.866;1.0426;0.0533;-1.0812;-2.0901;1.0
0.1272;-1.0903;0.9531;0.2486;-1.2236;0.0933;1.0
0.661;-0.8843;0.1753;2.9398;-0.9218;0.0664;1.0
0.1981;-1.0367;-0.2622;-0.0836;-0.9077;0.0125;1.0
-0.4012;-0.6406;1.2583;-0.0667;-0.7134;-2.1171;1.0
0.8017;0.0088;1.3356;3.0528;-0.7018;-1.0658;1.0
-0.5772;-1.4519;0.2478;-1.5645;-0.9633;0.1742;1.0
1.1095;0.8612;1.5041;0.0218;-0.3127;-1.0119;1.0
0.4634;-1.7566;0.9348;0.159;-0.4318;-0.0954;1.0
0.5537;-0.7139;-0.0968;-0.5173;-0.8527;0.0664;1.0
0.7549;-0.759;-0.1693;-0.084;-0.6487;-0.0145;1.0
0.1585;2.5091;-0.4437;-2.0928;1.4731;-1.4701;1.0
0.1484;-0.9635;-0.3339;-0.1624;-0.8704;-0.1493;1.0
-0.0848;-0.6261;0.7899;-2.2646;-1.094;-0.5806;1.0
0.3046;-1.3532;0.0411;-0.0836;-1.226;3.2472;1.0
0.2881;-0.6878;-0.1937;-0.681;-0.8185;-0.0414;1.0
0.4547;-1.1655;0.0344;-0.1097;-1.0427;-0.2841;1.0
0.1387;-0.9619;-0.3692;0.0218;-0.8796;0.1472;1.0
0.4558;-1.25;0.115;-0.4408;-1.0177;-0.2032;1.0
-0.7853;-0.2249;-0.0586;-0.0809;-0.2326;-1.7397;1.0
-0.019;-0.2854;1.1676;-0.2024;-0.8417;-1.1467;1.0
0.4573;-1.176;-0.0255;-0.0832;-1.0476;-0.0145;1.0
0.6271;-0.7314;-0.0519;-0.0313;-0.843;0.0394;1.0
0.2143;-0.9244;-0.149;-0.0832;-0.8204;-0.1493;1.0
0.0329;-1.2587;-0.4498;-0.0828;-0.9584;-0.1762;1.0
-0.074;-1.1928;-0.3347;-2.5364;-0.9719;0.1203;1.0
-0.0456;-1.0684;-0.4434;-0.3954;-0.9138;-0.2841;1.0
0.3871;-0.2563;0.7795;0.1294;-0.6823;-1.7397;1.0
-0.0269;-0.0483;0.4155;0.3993;-0.4721;1.3603;1.0
-0.6219;-0.4921;-0.2642;0.0352;-0.8876;0.0664;1.0
0.2327;-0.7082;-0.1535;-0.0844;-0.8106;-0.0145;1.0
1.1527;-0.4471;0.4408;-0.1097;-0.8741;-0.0954;1.0
0.1171;-1.528;-0.0218;0.4004;-1.2498;-2.2249;1.0
0.1859;-1.3302;0.9165;0.5523;-1.0837;-1.0388;1.0
-0.0006;-1.3391;1.0851;-0.0194;-0.8741;-0.1493;1.0
0.4022;-0.8567;-0.3243;-2.463;-0.7733;-0.0414;1.0
0.1646;0.4039;0.8806;-0.7387;-0.3408;-1.2545;1.0
-0.0452;-1.2949;-0.3156;-0.1359;-0.9749;-0.2841;1.0
0.0854;-1.2534;1.6653;-0.1478;-0.6401;-0.7154;1.0
0.6365;-0.6919;0.2203;-0.1097;-0.8772;0.0394;1.0
-0.6021;-1.4453;-0.3549;-0.2647;-1.0824;-0.0684;1.0
0.4911;-1.238;0.1217;-0.0582;-1.0598;-0.0684;1.0
-0.137;0.3052;0.5944;0.4793;-0.3487;-1.0388;1.0
-0.9858;2.004;-1.3761;-0.074;1.5647;-1.4701;1.0
-0.1665;-1.1571;-0.5987;-0.1097;-0.8228;-0.0684;1.0
-0.0873;-1.4741;-0.2718;-0.0574;-1.1044;-0.0414;1.0
-2.0087;1.1759;-2.5046;-0.1436;1.5116;-1.4162;1.0
0.1261;-1.1257;-0.415;-0.237;-0.9578;0.1472;1.0
0.8953;-0.9976;0.3955;-0.4615;-1.0482;-0.338;1.0
0.3514;-1.0679;-0.0173;-0.2616;-1.0262;0.0125;1.0
0.1117;-1.1602;-0.1448;1.6853;-0.9829;-0.2571;1.0
0.2388;-0.6327;2.5489;0.8637;-0.1031;0.7403;1.0
0.6498;-0.2487;1.5145;3.0186;-1.0372;-0.0684;1.0
-0.1248;-0.7603;-0.6043;-2.488;-0.3402;-2.1171;1.0
-0.2277;-1.4914;-0.5658;-0.1616;-1.0134;-0.2571;1.0
0.2337;-1.1516;-0.1943;-2.4811;-1.1002;3.1124;1.0
0.2622;-0.6814;-0.2532;-2.3892;-0.7519;-0.1493;1.0
0.3486;-0.6725;-0.1344;2.3035;-0.846;0.0394;1.0
-1.0531;-0.7733;0.0164;-0.0847;-0.6395;-0.2571;1.0
-0.7252;-0.302;-0.1052;-0.3631;-0.8552;0.3359;1.0
-1.1222;-0.6654;0.0164;-0.0098;-0.9816;0.2012;1.0
-0.1975;-0.8833;-0.5195;-0.1355;-0.7226;-0.0954;1.0
0.1617;-0.9275;-0.292;0.0506;-0.7959;0.0664;1.0
0.4551;-0.2134;0.6615;-0.157;-0.4171;0.6864;1.0
-0.3663;-1.319;-0.5729;-1.024;-0.9615;0.1472;1.0
0.5206;-0.9362;0.1571;-0.2824;-0.9676;0.1472;1.0
-1.1632;-0.8999;-0.1659;-2.177;-0.7409;-1.7936;1.0
0.6369;-0.6638;0.2239;-0.1613;-0.8912;0.0664;1.0
-0.0902;-0.9124;0.5702;0.4512;-0.6108;0.6325;1.0
0.3953;-0.707;0.079;-0.1862;-0.9749;-0.3919;1.0
0.7384;0.0318;1.3244;-0.608;-0.5894;-2.0093;1.0
0.3691;-0.4385;1.005;-2.2761;-0.923;-0.3649;1.0
0.5181;-0.9642;0.1905;-0.1097;-1.0495;-0.2571;1.0
1.2786;-1.5438;0.7081;-0.2647;-0.5265;-0.2571;1.0
0.3856;-0.8637;0.029;-0.1616;-0.9603;-0.0954;1.0
0.3025;-1.0951;-0.2114;-0.0574;-0.9975;0.2281;1.0
0.4223;-0.7975;-0.1659;0.036;-0.8766;-0.1223;1.0
-0.1187;-1.1814;-0.4664;-2.5741;-0.9431;-0.0414;1.0
-0.1557;-1.1683;-0.5074;-0.1097;-0.8741;-0.0954;1.0
0.0221;-1.054;-0.4293;-0.3842;-0.9535;0.0664;1.0
0.9601;-0.7721;0.4562;-0.2939;-0.9853;0.1742;1.0
0.5915;-0.7869;0.0414;-2.1174;-0.8466;0.0664;1.0
-0.0359;-1.1403;-0.2985;-0.2347;-0.9945;0.0125;1.0
-0.1928;-1.2725;-0.5973;-2.3719;-0.9279;0.0664;1.0
0.0448;-1.0921;-0.4344;-0.1351;-0.8827;0.0394;1.0
-0.2256;0.5663;-0.0389;-0.2347;0.0673;0.1742;2.0
0.6016;-0.9778;2.3871;1.4923;0.8218;-0.311;2.0
1.9589;-0.7371;0.6093;-0.2389;2.2025;-1.1467;2.0
1.4295;2.0919;0.5349;0.1648;1.0949;0.5516;2.0
0.0044;-0.141;1.2553;-1.1109;0.3496;-0.4458;2.0
0.8179;1.1504;-0.2878;0.2428;0.8157;-0.1493;2.0
0.4785;-0.0761;1.5069;-0.1097;0.2787;-0.6884;2.0
2.0371;-0.438;0.8876;1.6465;2.4982;-1.0927;2.0
2.3117;-0.3436;1.2224;-0.0086;2.1695;-1.0388;2.0
0.9486;0.0084;-1.9145;0.5312;0.2017;-0.5806;2.0
1.7685;-0.3589;0.4863;-0.1551;1.6478;0.7133;2.0
1.0944;-1.7944;0.3941;-0.4454;-0.6444;-0.6075;2.0
2.7044;-0.2637;1.521;2.4354;2.1219;-1.0119;2.0
0.1038;1.9443;-1.0495;-0.0317;2.1433;0.0394;2.0
1.6757;-1.5481;0.6795;-0.1374;-0.2241;-1.6858;2.0
-0.0564;0.5264;-2.4254;-0.1732;1.2006;-2.5214;2.0
0.273;-0.0302;1.094;2.0398;0.3875;-0.338;2.0
-0.0535;1.7443;-0.3268;2.7095;1.3057;1.1985;2.0
-0.6276;2.0827;-0.7582;2.6545;1.8366;0.6594;2.0
0.3975;-0.5222;-1.0604;0.1467;-0.2595;-1.2006;2.0
1.5349;0.6951;-0.9062;0.6592;0.4547;-0.9849;2.0
0.7326;-0.5071;0.3447;1.4096;-0.3793;1.7646;2.0
-0.0467;0.4147;-2.7925;-0.0409;1.0295;-1.2545;2.0
1.3359;-0.8039;0.7629;1.5234;1.7718;-1.1197;2.0
0.7607;0.3697;-2.1212;-0.5407;1.0839;-1.9014;2.0
2.997;-0.9499;0.9497;1.2055;0.9294;0.7133;2.0
1.9517;-0.4905;1.2227;-0.0398;1.9374;-1.2545;2.0
3.4372;-0.7466;3.1572;0.5008;1.533;0.4707;2.0
3.0413;-0.6699;1.6853;2.6522;1.3228;-0.7423;2.0
-0.3105;0.9366;-0.576;0.0033;0.462;-0.3649;2.0
-0.4534;-0.0777;-0.9489;-0.2378;0.0527;1.0098;2.0
1.3917;-0.7767;0.5719;1.6684;2.1029;-1.0388;2.0
0.5562;-1.5246;0.8219;-0.6887;-0.535;-0.7693;2.0
2.0417;-1.1372;2.5781;-0.3077;0.2567;1.0368;2.0
0.0394;0.0245;1.2937;0.455;0.4687;-0.5267;2.0
-0.4736;1.6657;-1.009;2.9271;1.3118;0.5516;2.0
1.6857;1.2545;1.6855;-0.2812;2.3547;-0.7693;2.0
-0.3883;-0.3926;-0.6215;-0.2128;-0.2174;0.5785;2.0
-0.015;-0.0593;1.4769;2.0163;0.5506;-0.7423;2.0
1.2524;2.4792;-0.952;-0.0059;4.2113;-1.2006;2.0
2.3444;-0.4;3.0901;0.9933;1.5195;0.0125;2.0
0.5465;0.1089;1.8541;-0.919;0.517;-0.3919;2.0
-0.2461;-0.2172;1.7973;0.8445;0.8017;-0.3919;2.0
-0.7234;0.2015;-0.4046;0.0637;0.1119;-0.311;2.0
-0.1683;-0.0644;1.2982;-0.3923;0.4675;-0.8501;2.0
0.2287;-0.2515;1.5541;3.0213;0.2243;-0.3649;2.0
-0.1266;0.2501;-0.2313;-0.0386;-0.0707;0.309;2.0
1.4489;-0.6079;0.5913;1.5311;2.0504;-1.2006;2.0
-0.1881;-0.2157;1.0721;1.7476;0.3539;-0.6075;2.0
3.5056;-0.6539;1.1817;0.2159;1.3808;-0.5536;2.0
1.3424;-0.625;0.6978;-0.1097;2.0461;-1.1197;2.0
2.9844;-0.829;0.6236;-1.1432;1.2244;0.0664;2.0
0.391;0.5326;-2.5192;1.5527;0.6722;-1.1467;2.0
2.3214;-0.7289;3.0255;2.0648;1.4273;0.1472;2.0
-3.4028;-1.2564;2.3717;-0.7591;0.6288;-2.3597;2.0
2.6216;-0.4785;1.1954;0.8776;1.5452;0.6594;2.0
-0.1057;1.3985;-1.059;-0.0978;2.2575;-1.3893;2.0
0.0466;1.1302;-0.303;0.0517;0.4895;-0.0684;2.0
3.2717;-0.7753;0.9047;1.4708;1.087;-0.2841;2.0
1.9463;-1.4039;1.0896;-0.0855;0.0429;0.6864;2.0
1.7135;-1.481;1.99;1.1951;-0.042;1.4142;2.0
2.9949;-0.8545;1.1505;1.9452;1.0888;-0.4997;2.0
1.7153;-0.6097;0.8396;-1.1201;1.5452;-0.8771;2.0
0.4187;1.2367;-0.4291;1.5503;2.2251;-1.9553;2.0
3.263;-0.4612;2.8146;0.0087;1.0858;-0.958;2.0
0.8312;1.9298;0.2897;2.9728;1.1542;2.2229;2.0
1.8427;-0.5472;1.0078;1.9606;2.0651;-1.1467;2.0
0.0044;2.0129;0.0697;-0.1309;1.1963;1.3064;2.0
0.5379;0.9952;-2.192;1.5561;0.9336;-1.1736;2.0
1.6465;-1.4854;0.7315;0.0998;0.0313;1.0638;2.0
0.4641;-0.0976;1.9599;1.916;0.3722;-0.4458;2.0
-0.1615;-0.1899;0.973;0.7907;0.1229;0.0125;2.0
1.9003;-0.8971;1.0671;0.6692;0.9556;-0.4997;2.0
1.2938;-1.0596;2.666;1.4077;0.8939;-0.6075;2.0
0.4551;0.1488;1.3347;0.2105;0.6178;-0.6614;2.0
0.724;0.6121;-2.1513;-0.6837;0.7986;-1.0927;2.0
2.866;-0.9356;2.5759;1.9006;0.9153;0.0933;2.0
0.2766;0.4486;-1.6508;-0.2028;0.6477;-1.1736;2.0
-1.6329;1.5644;-2.4633;-0.2501;2.2312;-0.6884;2.0
2.0486;-1.3615;0.6503;0.9022;-0.031;1.4951;2.0
3.4761;-0.3777;1.6131;0.6334;1.905;-1.1467;2.0
-0.1331;0.0382;1.2112;-2.2746;0.6557;-0.311;2.0
-0.6384;2.2825;-1.9213;0.1778;4.218;-1.3353;2.0
-0.1532;1.1351;-0.3344;-0.1878;0.517;0.0933;2.0
2.0313;-1.197;2.3582;-2.2035;0.319;2.2229;2.0
-0.52;1.8986;-0.8335;-0.1313;1.3448;0.4438;2.0
0.575;-0.1101;2.0647;3.1228;0.1663;0.282;2.0
-0.0506;-0.5684;0.9578;-1.7852;0.0557;-0.6614;2.0
0.8406;2.5892;-2.1749;-0.0202;3.6993;-1.4162;2.0
0.2363;-0.0305;1.7066;0.5258;0.751;-0.958;2.0
2.2944;-0.9152;2.9767;1.5334;0.9257;-0.4997;2.0
2.7181;-0.7481;1.4639;-0.252;1.3521;-1.1736;2.0
0.1707;-0.437;-0.7644;-1.3988;0.2885;0.7942;2.0
-2.305;-0.168;1.0418;0.4589;0.6159;-0.338;2.0
3.587;-0.5479;1.7973;-1.7248;1.8293;-0.8232;2.0
0.7952;0.1658;1.9372;1.6765;0.6153;-0.8232;2.0
0.6502;0.1965;1.9206;0.9567;0.5921;-0.7693;2.0
-1.0398;-1.3983;0.8036;0.3708;-0.174;-0.4188;2.0
3.5503;-0.6805;1.2536;1.7437;1.3173;-0.6345;2.0
-0.4268;1.4627;-0.3288;-1.6437;1.1163;0.7942;2.0
-0.8724;1.9476;-0.9414;0.5565;1.7468;0.5246;2.0
-2.1689;-1.3948;2.1276;-0.3146;-0.2882;-1.3893;2.0
0.8752;0.718;-2.7476;-1.2081;0.9697;-1.2006;2.0
-0.6409;1.8586;-0.9225;0.8745;1.4309;1.0638;2.0
-0.5729;1.5146;-0.372;2.6714;1.0717;1.7107;2.0
0.273;2.223;-0.372;2.7648;1.7437;0.4707;2.0
-1.4242;-0.8396;-2.8768;1.0367;0.2494;-1.2006;2.0
-2.1048;0.2487;-2.4044;-1.7325;1.5727;0.7942;2.0
0.0167;0.0931;1.1985;-1.3608;0.542;-0.4458;2.0
1.4244;-0.7092;3.3061;-0.2685;1.8781;-1.1736;2.0
-0.3184;-1.5272;-2.5167;0.7445;-0.1318;-1.2275;2.0
0.8564;0.3197;1.9361;-1.8925;0.4467;-0.1493;2.0
0.7452;-0.0233;-1.291;0.5892;-0.0591;-0.2301;2.0
-0.029;-0.1417;1.3906;2.8848;0.6465;-0.8501;2.0
1.7243;-1.4325;1.1786;2.5734;0.2109;-0.4727;2.0
3.5355;-0.7106;0.7604;-1.548;1.949;-1.1197;2.0
1.2862;-0.7197;0.55;1.4842;2.0229;-1.1197;2.0
1.5788;-1.5986;0.57;-1.0263;-0.5204;-0.7154;2.0
3.1025;-0.7235;2.7205;0.5738;1.1285;0.7133;2.0
-1.2474;-0.266;-2.3577;1.4216;0.6367;-1.1197;2.0
1.1721;-1.3246;0.9901;0.5577;-0.1557;-2.1171;2.0
0.1578;-0.0075;1.4881;2.2516;0.5542;-0.7962;2.0
2.0676;-0.1032;-2.5993;-1.9282;0.6379;-1.0658;2.0
-3.3718;-1.3001;2.2534;0.6334;0.5286;-2.4945;2.0
0.5868;0.7729;-2.0131;-1.7917;0.7754;-1.4162;2.0
-0.0798;-0.0042;1.2325;0.3374;0.4986;-0.2841;2.0
2.8084;-0.2241;1.553;2.2601;2.0987;-1.1736;2.0
2.4434;-0.1917;1.3589;0.056;2.1219;-1.2006;2.0
-0.579;1.8155;-0.5906;2.9129;1.6393;1.1985;2.0
-0.2572;1.5694;-0.3824;3.1712;1.4321;2.0881;2.0
-0.9231;0.6107;-1.6668;-0.1386;2.4041;-0.5267;2.0
0.4735;0.6525;-2.8276;1.4842;0.8573;-1.1467;2.0
2.4956;-1.1546;0.6034;-0.776;0.7332;-0.7693;2.0
0.9849;0.9518;-2.2872;0.7714;1.0613;-1.2006;2.0
0.2661;0.35;0.304;0.4012;-0.1086;0.1472;2.0
0.1999;-1.7286;0.5568;0.8203;-0.5595;-1.6588;2.0
1.7315;-0.525;0.7095;-0.1766;2.5844;-1.1736;2.0
1.7055;-0.7751;1.0033;1.7645;1.8024;-1.1736;2.0
0.0296;0.0582;1.6409;2.5207;0.1877;1.4681;2.0
-1.1787;2.2353;-1.8468;-0.0409;4.1074;-1.4701;2.0
-0.0971;0.9455;-2.6745;-1.4826;1.1646;-1.1197;2.0
0.1848;0.1484;1.5945;1.021;0.641;-0.1223;2.0
-1.1056;1.4421;-1.3871;1.0844;1.5611;1.2255;2.0
-3.9686;0.8007;-0.7431;-0.1793;1.3637;0.0933;2.0
-0.0632;-0.1021;1.6945;0.3086;0.3985;0.2551;2.0
-0.6294;0.9266;-0.3676;-1.9051;0.9153;-0.5267;2.0
0.6239;1.5099;-2.053;-1.919;2.6174;-1.2545;2.0
0.2265;-0.0539;-2.8099;1.6684;0.4577;-1.0119;2.0
1.2139;-1.4674;1.8066;1.1717;1.5629;-1.3353;2.0
2.2246;-1.3033;0.9399;-0.2489;-0.3805;-0.7962;2.0
-1.3475;-0.917;0.5551;0.0079;-0.419;2.8968;2.0
-0.1035;-0.2726;1.1853;-0.6134;0.3325;-0.2301;2.0
2.1087;-1.3618;1.0912;-0.4161;-0.3298;-1.2006;2.0
2.7649;-0.8443;3.0396;2.0148;1.0247;-0.0954;2.0
1.6022;-0.7524;0.7831;0.9733;1.803;-1.1736;2.0
0.6365;0.9179;-0.103;-1.3046;0.6385;-0.4727;2.0
0.2413;0.8079;0.0023;-0.0344;0.0863;0.6325;2.0
3.0935;-0.9155;0.3734;1.7876;1.9075;-1.2006;2.0
-0.488;2.0369;-0.1799;3.0989;1.5611;0.9829;2.0
0.3957;-1.6093;-0.3749;-0.5215;-1.1179;-1.1736;2.0
3.0863;-0.8645;3.0227;1.9006;0.9709;0.282;2.0
0.4306;-0.037;1.6327;1.0175;0.371;0.4168;2.0
2.348;-1.198;0.9033;0.3881;0.3453;-0.6345;2.0
-0.5304;1.9323;-1.5941;1.1951;2.1689;1.1177;2.0
0.0505;0.1327;1.578;-2.3903;0.6935;-0.7423;2.0
0.7704;-0.9742;0.4276;-0.0882;-0.32;0.902;2.0
0.4029;-0.1845;1.2732;0.6242;1.1371;-0.931;2.0
-0.5276;1.4898;-0.2007;0.0183;1.0735;1.0098;2.0
0.4515;-1.1893;0.0931;-0.1097;-0.4923;1.549;2.0
0.85;0.5782;-2.3139;1.4842;1.0259;-0.2301;2.0
1.1181;2.5134;-2.2201;0.2136;3.6608;-1.4701;2.0
0.4205;0.9044;-2.3583;-1.9709;1.0424;-1.1736;2.0
-0.0146;-0.1646;1.2887;-1.786;0.2744;-0.6345;2.0
0.7632;0.3222;2.0647;0.0325;0.8145;-0.6075;2.0
-0.1658;0.7206;-2.2257;2.5265;0.9636;-1.1467;2.0
3.3879;-0.6389;3.3494;2.2562;1.3448;-0.4727;2.0
-0.4422;-0.6386;-0.7953;-1.2777;0.0863;0.3899;2.0
0.03;0.6037;-2.4659;1.7164;0.977;-1.0658;2.0
0.8039;0.8072;-2.3979;1.8125;0.9355;-0.9849;2.0
-0.4829;1.2081;-0.6605;2.5115;1.0766;0.3899;2.0
0.7801;-1.0265;0.5298;-0.2797;-0.4226;2.5733;2.0
-0.1489;0.4876;-1.6884;-0.1697;0.3612;-0.8232;2.0
3.4383;-0.6935;1.1308;2.2335;1.2758;-0.2571;2.0
-0.1061;0.0653;1.1404;-0.766;0.4119;-0.1493;2.0
-0.2662;-0.2034;1.0168;2.8836;0.3093;-0.4727;2.0
-0.692;2.0346;-0.8557;-0.0021;2.2502;0.7133;2.0
3.4556;-0.6799;1.0137;2.7564;1.1108;0.4707;2.0
1.807;-1.0411;0.3076;0.0052;1.426;0.0664;2.0
2.4632;-0.266;1.2356;-0.0428;2.4781;-1.1467;2.0
-1.1798;-0.8249;-0.7358;-0.2001;-0.009;0.1203;2.0
-0.4829;1.7458;-1.3643;0.5846;1.3338;1.1177;2.0
3.1309;-0.8565;0.9168;2.7191;1.0521;-0.2841;2.0
-2.328;0.1091;-2.0488;-0.1097;0.5616;-1.1197;2.0
0.2982;-1.2002;-1.8856;-0.222;-0.1227;-1.4162;2.0
0.9619;0.2118;2.0874;0.8998;0.4027;-0.4997;2.0
-0.3087;0.1038;1.7426;2.6364;0.9122;-0.2841;2.0
1.9323;-0.6891;1.2294;2.6518;1.7828;-1.0119;2.0
1.7761;-1.4598;2.0153;-0.1097;-0.5088;-1.6588;2.0
0.7283;0.2579;1.6886;1.0436;0.5555;-0.311;2.0
2.3218;-1.212;1.3409;-0.1801;-0.0652;0.929;2.0
-0.0229;-0.1968;1.4931;1.4058;0.3655;-0.311;2.0
-0.8702;-0.3627;3.0191;1.6622;1.1872;0.1472;2.0
1.4093;-1.6153;0.6581;-0.4769;-0.0512;-1.7666;2.0
-0.5855;-1.3056;-1.0899;1.9256;-0.9108;0.5516;2.0
0.4007;-1.4881;0.7087;-0.5288;-0.4159;-1.8745;2.0
1.7174;-0.502;0.9359;-0.1436;1.8965;-1.1197;2.0
1.0508;-1.0068;0.5877;1.4008;1.5812;-1.1197;2.0
2.8635;-1.0198;2.6837;-0.8233;-0.0035;1.2525;2.0
0.2816;1.1629;-0.1114;2.7664;0.7479;0.4168;2.0
0.0923;-0.0934;1.2426;0.0625;0.5298;-0.6614;2.0
0.9245;0.4971;-1.0776;0.091;0.6966;0.6594;2.0
-0.0992;2.7535;-0.6147;-0.0367;3.3334;-1.3353;2.0
-0.5995;0.5522;-2.6785;1.4465;0.9336;-1.2006;2.0
1.8841;-0.574;1.0337;1.6938;1.9429;-1.1467;2.0
-0.1608;0.0038;-0.5967;-0.1609;-0.1483;0.5246;2.0
0.4684;-0.6646;2.6739;1.9433;1.3924;-0.8232;2.0
-0.1766;0.9779;-0.4055;-0.2166;0.4174;-0.1493;2.0
1.0526;-0.9772;2.52;1.2197;1.2336;-1.1467;2.0
1.297;-1.1056;1.983;-0.2101;0.9025;-0.1493;2.0
1.8088;0.3766;-0.6647;1.0986;0.1351;-1.0119;2.0
1.2758;2.566;-2.4785;0.1417;3.6413;-1.3084;2.0
-0.0719;0.8355;-0.3861;-0.0217;0.2805;-0.4458;2.0
3.5647;-0.6704;0.8929;1.7868;2.271;-1.0658;2.0
-0.2835;1.2262;-0.4543;-0.3546;0.55;0.0394;2.0
1.1037;2.5466;-2.7203;0.2136;3.7683;-1.3084;2.0
0.4396;-0.6266;0.7174;-0.2927;-0.4758;2.3846;2.0
0.9569;-1.2337;1.0674;-0.6803;-0.1294;-0.7423;2.0
0.1509;-0.3237;1.5156;-0.3558;0.1131;0.3899;2.0
-0.0585;0.0308;1.3072;1.242;0.4705;-0.4458;2.0
-0.0971;0.3241;-0.2951;-0.0351;-0.1031;0.4168;2.0
-0.1964;1.3666;-0.4248;1.6376;1.2544;2.1959;2.0
0.3565;-0.074;-1.9238;0.9425;0.7009;-2.2788;2.0
0.2413;0.2625;1.6544;1.7864;0.6007;-0.2032;2.0
-0.5542;1.5975;-0.5484;3.1951;1.3979;0.8212;2.0
0.801;-0.7427;0.384;0.0252;1.9838;-1.2275;2.0
-0.2835;1.3915;-0.7675;1.2882;1.3472;1.1716;2.0
1.5774;0.2691;-2.2165;0.9022;0.6886;-1.1467;2.0
-0.6402;1.5064;-1.1997;0.0229;1.2709;0.902;2.0
-0.02;1.9117;-0.2139;0.2486;1.4633;0.7133;2.0
2.6724;-0.5949;1.3423;-0.2066;1.9899;-1.1467;2.0
-0.1194;0.3503;-3.111;0.6334;1.0063;-1.2545;2.0
1.847;-0.6061;1.0822;1.6203;2.0687;-1.0388;2.0
0.2323;0.3444;-2.1541;-0.0778;0.6166;-1.1467;2.0
-0.0517;2.214;-0.6807;0.362;1.4364;0.8481;2.0
0.5919;-0.5069;-0.5939;1.7656;0.126;-0.5806;2.0
-0.0121;-0.2425;1.1842;0.3493;0.3667;0.2281;2.0
2.586;-0.2787;0.6739;0.0229;2.3162;-1.1736;2.0
0.1592;-0.2134;1.0379;-0.7637;0.2256;-0.0145;2.0
2.8332;-0.6883;1.4131;-1.42;1.4816;-0.2571;2.0
0.1344;-0.0916;1.1148;1.5269;0.4119;-0.5536;2.0
3.3271;-0.7093;1.0205;1.9702;1.4657;-0.4188;2.0
1.3146;-0.3038;-2.9658;-1.6683;0.974;-2.1979;2.0
0.391;0.846;-1.9058;-0.0755;1.3649;-1.1467;2.0
-0.8591;1.8172;-0.6403;1.2947;1.4609;0.9559;2.0
3.105;-0.6482;3.301;-2.235;1.6166;-0.7693;2.0
-0.0319;0.1666;2.1433;2.3831;1.0234;-0.8232;2.0
0.0527;0.5289;-2.8546;1.5311;0.9116;-1.1736;2.0
-0.7406;1.2792;-0.7242;0.0617;1.379;0.2281;2.0
-0.2356;1.0406;-0.4948;0.054;0.4913;-0.2301;2.0
1.2247;0.2018;-1.5087;-1.5076;0.9978;0.4438;2.0
0.0919;-0.3737;-1.7775;1.2705;-0.1715;0.309;2.0
2.1242;-0.5409;1.433;1.1294;1.7694;-1.0388;2.0
1.3938;-1.6767;0.8449;0.1709;-0.6884;-1.578;2.0
0.4612;-1.4315;1.1269;-0.4865;-0.5314;-0.9849;2.0
0.3827;0.1222;-0.1923;-0.2677;0.2402;-2.171;2.0
0.3781;0.4225;-2.7636;0.9302;0.8096;-1.1736;2.0
0.0253;-0.0888;1.2825;0.3781;0.2677;-0.1493;2.0
0.5724;0.3963;0.0529;0.2105;0.4492;0.0664;2.0
0.0214;0.064;1.3451;1.5211;0.5408;0.0933;2.0
0.3284;-0.1412;1.4988;0.0033;0.3429;-0.0684;2.0
2.523;-1.1628;0.4163;0.2497;1.1157;0.4707;2.0
2.1979;-0.5765;0.9179;-1.9174;2.2392;-1.0927;2.0
0.5771;-0.9913;0.179;-0.2712;1.7633;-1.2006;2.0
1.829;-0.4158;1.1207;1.5723;1.8861;-1.0388;2.0
-0.1323;-0.0156;1.2803;2.6491;0.4828;-0.1223;2.0
-3.1926;-1.2049;1.0443;-0.1897;-0.1306;-1.1467;2.0
-1.0333;1.032;-1.3124;0.0721;0.8793;1.4951;2.0
0.4421;0.0806;1.6232;-0.791;0.5322;-0.6614;2.0
2.3113;-0.3292;1.3305;1.8125;2.1304;-1.0927;2.0
0.8967;-0.7549;0.5994;-0.1732;2.0461;-0.7423;2.0
-0.3263;-0.1677;1.4269;-0.1789;0.6355;-0.904;2.0
-0.0208;0.9467;-1.9516;-0.6895;1.0344;-1.1197;2.0
0.4288;1.1417;-2.2437;-1.498;1.6637;-2.4136;2.0
-0.1762;0.2339;-0.5128;-0.4354;-0.1355;0.929;2.0
1.8499;-1.3718;2.0998;0.0575;0.0539;0.7942;2.0
1.6019;-1.4591;0.8048;-0.8379;-0.4935;-0.904;2.0
0.1135;0.0178;1.7614;2.3758;0.7546;-0.5536;2.0
0.0167;-0.0624;1.3038;-1.2535;0.4406;-0.2841;2.0
2.0219;-0.3665;1.2423;-0.1097;2.2001;-2.2249;2.0
0.0545;0.6336;-3.2264;0.8599;1.1811;-1.3084;2.0
-0.0103;0.9289;-2.5116;0.7226;1.0882;-0.958;2.0
2.7983;0.0895;1.6942;0.3916;2.4115;-1.2814;2.0
0.1707;0.0342;1.5898;1.8744;0.1504;2.0881;2.0
-1.5232;-0.8586;-0.9885;-0.237;0.2848;0.0664;2.0
-0.0035;-1.4106;-3.0096;-0.2431;0.1107;0.9829;2.0
0.0134;-0.7833;-0.8641;-1.0709;-0.0909;0.282;2.0
1.9219;-1.4147;1.1098;-0.1097;-0.4061;-0.8501;2.0
2.9617;-0.8225;0.9306;0.0952;0.1101;0.0125;2.0
2.0694;-1.3608;1.0266;-0.5522;-0.3896;-1.7127;2.0
-0.1482;1.1988;-0.5518;2.7956;1.1328;2.1151;2.0
-0.4617;-0.3565;1.3974;2.9486;0.297;0.4438;2.0
1.3712;-0.043;-0.9663;0.006;-0.2571;0.2281;2.0
-0.0611;2.1298;-0.4889;-0.2701;1.324;1.0907;2.0
0.2147;1.0047;-2.5175;1.0863;1.1438;-1.1197;2.0
-1.7704;1.9767;-2.4319;-1.295;4.1386;-1.4162;2.0
0.247;-0.1065;1.4909;1.1044;0.4699;-0.7962;2.0
1.3697;2.1613;-2.2156;-0.1616;2.1781;0.7133;2.0
2.0504;-1.0762;2.2068;0.9022;0.7943;-0.4727;2.0
2.2203;-0.7169;1.0379;1.8633;1.8745;-1.1467;2.0
-1.0693;1.3324;-1.1919;-0.1559;1.2507;1.3872;2.0
-0.1046;-0.056;1.1283;0.8441;0.3422;0.6055;2.0
1.4705;-1.5312;1.8644;0.1425;0.0068;0.7942;2.0
3.1694;-0.0623;1.7434;-0.0094;2.351;-0.904;2.0
2.0626;-0.3481;1.3881;1.465;1.8616;-1.1467;2.0
1.716;-1.5121;1.9024;2.0263;-0.5308;-0.7423;2.0
-0.4275;1.4008;-0.5956;-0.598;1.1517;1.0368;2.0
1.3924;-0.7828;0.6882;1.0732;1.5439;-1.0658;2.0
0.1304;-0.0233;1.3376;0.4927;0.5048;-0.6075;2.0
2.1933;-1.2873;0.0925;0.4523;0.8646;-0.2841;2.0
-0.1421;1.3277;-0.6375;2.2024;1.1426;0.6325;2.0
-0.3479;2.6175;-1.1646;-0.1443;4.2327;-1.3893;2.0
3.3688;0.0821;1.9692;-2.4034;2.5715;-1.1197;2.0
0.1751;-0.1184;1.6075;0.2809;0.5591;-1.0658;2.0
-0.6006;-0.5702;-1.2936;0.0452;-0.2051;1.0368;2.0
0.2629;1.4609;-2.2052;-0.1424;2.6057;-1.1467;2.0
