Q_val;R_val;S_val;RR_l_0/RR_l_1;signal_std;seq_size;label
-0.5779;0.588;-0.2932;-0.4769;-0.3536;0.7056;0.0
-0.2919;1.4132;-1.269;2.321;0.9005;-0.9615;0.0
-0.1075;0.0155;-0.1492;-0.2703;-0.4701;-0.0462;0.0
-0.2951;0.8101;-0.2736;-0.2389;-0.3947;0.722;0.0
-0.3729;-0.2586;0.0745;-0.3257;-0.8519;-0.2423;0.0
-0.0166;0.9077;0.1311;-0.3358;0.2383;0.2807;0.0
-0.2575;-0.2966;0.1929;-0.231;-0.9388;0.2807;0.0
0.3159;1.6098;0.3162;2.1555;0.4017;0.1172;0.0
-0.4765;0.4516;-0.4363;-0.3459;-0.4041;0.5259;0.0
-0.4908;-0.2382;-0.0119;-0.2731;-0.7682;-0.2914;0.0
-0.5841;1.2438;-1.3788;-0.2989;0.8448;-0.9125;0.0
0.0182;1.8741;-1.0538;-0.2102;0.8604;-0.9288;0.0
0.0329;1.3052;-0.0536;-0.3779;0.2851;0.2316;0.0
-0.2275;0.8282;-0.0737;-0.2733;-0.3661;0.6239;0.0
-0.4761;1.0103;-0.1374;-0.4069;-0.2959;0.5259;0.0
-0.1325;1.2364;0.3845;-0.196;-0.3344;0.6893;0.0
-0.3896;-0.2539;0.1476;-0.3521;-0.8738;0.2153;0.0
1.1115;2.0398;1.031;-0.2684;-0.2928;0.0192;0.0
0.1925;0.4181;0.1537;-0.3616;-0.1216;-0.5529;0.0
0.0331;0.1269;-0.0652;-0.2535;-0.3734;-0.1933;0.0
0.2078;1.656;0.1482;-0.2183;0.4141;0.0682;0.0
0.0971;1.4764;-0.0835;-0.3624;0.3845;0.5095;0.0
-0.4866;1.2402;0.0558;-0.2486;-0.1903;0.199;0.0
-0.4244;0.914;-0.0021;-0.3343;-0.2948;0.6239;0.0
-0.1012;-0.1219;0.356;-0.2989;-0.8961;0.1009;0.0
0.3831;1.5247;0.2157;-0.446;0.4355;-0.1606;0.0
0.0218;0.1265;-0.0621;0.7446;-0.3609;-0.2914;0.0
0.0585;0.2905;-0.1522;-0.3796;-0.1762;-0.4221;0.0
-0.3616;1.5866;-1.4274;-0.4118;0.9213;-0.9779;0.0
-0.4175;-0.3941;0.0546;-0.3246;-0.9206;0.2316;0.0
-0.32;1.2581;0.2301;-0.3843;-0.2886;0.7547;0.0
-0.0115;0.1548;-0.0998;-0.283;-0.4582;0.2316;0.0
-0.6603;-0.3697;-0.1968;-0.2716;-0.8202;0.1009;0.0
-0.1065;2.8265;-0.6871;-0.3558;2.6185;0.1009;0.0
-0.1438;0.1152;-0.1608;-0.3141;-0.3156;-0.1443;0.0
-0.5795;0.5375;-0.3702;-0.2989;-0.4223;0.3461;0.0
-0.3616;0.8124;-0.3373;-0.3105;-0.4093;0.5585;0.0
0.6736;0.6969;0.4386;-0.3474;-0.2194;-0.3894;0.0
-0.5478;0.4434;-0.427;-0.3117;-0.3952;0.2643;0.0
-0.2182;2.7518;-0.4573;-0.447;2.1057;0.4441;0.0
-0.3696;1.5587;-1.3117;-0.3184;0.8531;-0.9615;0.0
-0.1481;0.0146;-0.2214;-0.2679;-0.4644;-0.3404;0.0
0.1088;0.2721;0.0202;-0.2843;-0.2262;-0.0135;0.0
-0.7201;0.1473;0.0261;-0.2684;-0.1445;-0.275;0.0
-0.5528;0.1859;-0.3963;-0.106;-0.5102;0.3297;0.0
0.3052;1.2233;0.1785;-0.382;0.244;0.297;0.0
-0.4504;-0.3742;0.0627;-0.3401;-0.8883;0.0192;0.0
-0.587;-0.2089;-0.0652;-0.3987;-0.7905;0.2643;0.0
-0.3652;-0.2747;0.2261;-0.286;-0.9383;0.2316;0.0
-0.2392;1.1384;-0.2905;-1.2974;0.461;-0.1933;0.0
-0.3814;0.6415;-0.0837;-0.2203;-0.4285;0.5095;0.0
-0.5308;-0.4399;-0.1333;-0.2836;-0.8831;-0.1606;0.0
-0.4712;0.0007;-0.0701;-0.2989;-0.6725;0.1009;0.0
-0.5454;1.095;0.1002;-0.3491;-0.2605;0.6076;0.0
-0.6607;0.7249;-0.4211;-0.3362;-0.286;0.4768;0.0
-0.1568;0.8175;-0.1268;-0.2989;-0.3926;0.4114;0.0
-0.3393;2.3097;-0.4937;-0.1556;1.7057;1.5556;0.0
-0.1265;0.0278;-0.1598;-0.2834;-0.2449;-0.8634;0.0
-0.2642;0.709;-0.0151;-0.3738;-0.3619;0.6076;0.0
0.4031;1.2478;0.3975;-0.3953;0.0708;0.2316;0.0
-0.7736;-0.5559;-0.1252;-0.2858;-0.8524;0.2316;0.0
0.3862;1.2357;0.2535;-0.2989;0.2295;0.199;0.0
0.3468;1.8789;1.3048;2.0039;0.4193;-0.1279;0.0
-0.0394;1.6392;-1.017;-0.1294;1.0539;-0.8308;0.0
0.0719;0.1441;-0.2173;-0.2334;-0.1996;-0.3568;0.0
-0.5662;-0.2997;0.0548;-0.4118;-0.8634;0.0845;0.0
0.0345;1.2909;-0.0284;-1.3011;0.345;0.3787;0.0
-0.2543;1.0153;0.2739;-0.4079;-0.3573;0.5749;0.0
-0.369;1.5387;-1.5427;-0.2793;1.0451;-0.9615;0.0
0.8384;1.0429;1.0829;-0.2149;-0.4467;-0.3894;0.0
-0.2622;-0.0495;-0.4124;-0.283;-0.1908;-0.6019;0.0
-0.3466;1.1584;0.198;-0.2989;-0.2288;0.248;0.0
-0.2691;-0.0527;0.2972;-0.3242;-0.8269;0.3297;0.0
-0.3131;1.0834;-0.0166;-0.2072;-0.3063;0.5095;0.0
-0.3999;-0.1143;0.0752;-0.2989;-0.7645;0.0028;0.0
-0.0449;-0.0109;-0.0609;-0.1906;-0.5487;-0.1933;0.0
0.0583;2.3922;-0.9741;-0.3946;1.8877;1.6209;0.0
-0.1042;0.0941;-0.0943;-0.3135;-0.3968;-0.1116;0.0
0.0484;0.1933;-0.0294;-0.2989;-0.3593;-0.1443;0.0
-0.0598;0.7144;0.7693;-0.3261;0.0089;0.0355;0.0
-0.1604;0.0715;-0.269;0.2739;-0.3136;-0.0952;0.0
-0.4163;-0.2429;0.028;-0.0077;-0.8561;0.3461;0.0
-0.4531;-0.0956;0.0607;-0.4758;-0.7937;0.2807;0.0
-0.1919;1.1949;0.0436;-0.3837;-0.2584;0.5912;0.0
-0.3379;0.8872;0.1537;-0.4593;-0.376;0.5749;0.0
-0.3;0.9303;0.1351;-0.2188;-0.3515;0.722;0.0
-0.3115;0.935;0.0965;-0.3117;-0.3146;0.2807;0.0
-0.075;0.1341;-0.189;-0.3581;-0.2823;-0.2587;0.0
-0.4924;-0.337;-0.1276;-0.4168;-0.8379;0.4441;0.0
-0.4102;-0.3483;0.0682;-0.1281;-0.7723;-0.1116;0.0
-0.3733;-0.2615;0.0003;-0.1749;-0.8701;0.1336;0.0
-0.3757;1.0799;0.052;-0.3815;-0.2199;0.3297;0.0
-0.2048;2.9838;-1.0554;-0.2299;2.1546;1.6046;0.0
-0.34;-0.0651;0.2859;-0.3257;-0.8249;0.2153;0.0
0.3292;1.6531;0.1551;-0.3639;0.3117;0.722;0.0
-0.3931;0.1038;0.2075;-0.4133;-0.764;0.3461;0.0
-0.1105;1.9769;-0.8289;-0.2596;0.9411;-0.9615;0.0
-0.8603;-1.0401;-0.317;-0.2847;-1.0142;-0.0626;0.0
0.2345;1.1599;0.9413;-0.1973;-0.042;0.2643;0.0
-0.5642;1.9257;-0.6182;-1.1697;1.5325;0.2316;0.0
-0.6859;-0.5461;-0.284;-0.4011;-0.8072;-0.1116;0.0
0.3205;1.4501;0.141;-0.4069;0.4599;0.3134;0.0
0.3153;1.8228;-0.3035;0.0967;0.8079;-0.9288;0.0
-0.4113;-0.5038;-0.0467;-0.312;-0.9398;0.297;0.0
-0.2763;1.01;0.088;-0.2739;-0.3812;0.3787;0.0
-0.0586;2.16;-1.255;-0.2791;1.9444;1.5719;0.0
0.0731;2.7471;-0.2519;-0.22;2.7824;1.6209;0.0
0.0236;0.2516;-0.0699;-0.389;-0.2673;-0.177;0.0
-0.3628;-0.4318;0.0556;-0.312;-0.9263;0.3461;0.0
-0.4185;0.9569;-0.102;-0.3373;-0.3557;0.5749;0.0
-0.0247;0.208;-0.0977;-0.3291;-0.3172;-0.2423;0.0
0.2579;1.6261;1.236;0.2208;0.3262;0.1499;0.0
0.1725;0.2356;0.0989;-0.2226;-0.2995;-0.3241;0.0
0.1711;0.2575;0.003;-0.3848;-0.2693;-0.1443;0.0
-0.0513;0.0689;-0.2407;-0.2989;-0.156;-0.3731;0.0
-0.3951;-0.0555;0.0766;-0.342;-0.6475;0.0845;0.0
-0.4476;-0.0622;0.0853;-0.4378;-0.7411;0.3787;0.0
0.2504;1.1266;0.2539;-0.2694;0.2362;-0.5692;0.0
-0.4084;-0.3817;0.1716;-0.2168;-0.8592;0.0355;0.0
-0.1741;1.1136;1.0585;-0.481;0.1759;0.7383;0.0
-0.0709;0.1833;-0.1447;-0.3744;-0.3146;-0.177;0.0
0.0408;0.1927;0.0511;0.5045;-0.402;-0.177;0.0
-0.4413;1.0179;0.0707;-0.2866;-0.299;0.5422;0.0
0.0416;0.0639;-0.043;-0.3865;-0.4207;-0.1279;0.0
-0.4945;-0.4009;-0.1223;-0.3433;-0.8139;-0.1116;0.0
-0.0788;1.2681;0.3082;-0.2621;-0.3089;0.5912;0.0
0.0097;0.1469;-0.1652;-0.2525;-0.2548;-0.2423;0.0
-0.2836;-0.0471;0.1923;-0.2855;-0.8119;-0.0952;0.0
0.0705;1.0766;0.0034;0.8902;0.2362;0.0845;0.0
-0.2487;-0.2934;0.137;-0.312;-0.8732;0.248;0.0
-0.3198;0.4381;-0.1303;-0.3113;-0.5065;0.5585;0.0
-0.4527;0.1683;0.1683;-0.2718;-0.647;0.1336;0.0
-0.2058;-0.0364;-0.6228;-0.3463;-0.1705;-0.5202;0.0
0.205;1.9152;0.0928;-0.3564;0.5541;0.2153;0.0
0.1416;1.2951;-0.0151;-1.4377;0.4516;-0.226;0.0
-0.3032;1.8677;-1.003;-0.411;0.9234;-0.9942;0.0
-0.4961;-0.194;0.1144;-1.1666;-0.777;0.2643;0.0
1.101;1.6528;0.9954;-0.3122;-0.0561;0.0355;0.0
-0.3591;-0.292;0.2488;-0.2989;-0.9128;0.2153;0.0
-0.7415;1.4433;-0.8394;2.0344;1.4368;1.4412;0.0
-0.0008;0.077;-0.0434;0.4358;-0.3375;-0.1443;0.0
-0.4323;0.6088;-0.129;-0.2525;-0.454;0.3461;0.0
-0.4846;-0.3968;0.0682;-0.1445;-0.893;0.1009;0.0
-0.3018;1.498;-1.2753;-0.3182;0.8464;-0.9452;0.0
0.0652;0.0628;-0.0784;-0.2989;-0.3796;-0.0952;0.0
-0.3816;0.8229;0.0973;-0.3229;-0.3364;0.4768;0.0
-0.2917;-0.0895;0.3985;-0.3382;-0.8483;0.297;0.0
-0.16;0.0155;-0.258;-0.3132;-0.3182;-0.0299;0.0
-0.2656;0.8698;0.1266;-0.3858;-0.3926;0.5422;0.0
-0.102;0.0149;-0.1673;-0.2233;-0.4509;-0.2587;0.0
-0.4014;0.9998;-0.129;-0.336;-0.2449;0.2643;0.0
-0.3266;0.0514;0.2464;-0.1874;-0.7921;0.0355;0.0
0.0707;0.2598;-0.007;-0.4286;-0.2745;-0.1443;0.0
0.0672;0.2275;0.1907;-1.4151;-0.3609;-0.1606;0.0
0.1379;1.3611;0.0402;1.6147;0.3626;0.1499;0.0
-0.5714;1.1124;-0.0623;-0.3115;-0.2574;0.5259;0.0
-0.347;-0.4062;0.1221;-0.1902;-0.9112;0.1336;0.0
-0.2386;1.616;-1.2495;-0.1807;0.7881;-0.9615;0.0
-0.3614;1.1938;0.1339;-0.4086;-0.2501;0.4441;0.0
-0.4721;-0.1961;0.0357;-0.3613;-0.8238;0.3787;0.0
-0.299;1.1354;-0.3481;-0.1062;0.4516;-0.6346;0.0
0.0563;1.363;-0.0162;-0.3543;0.3502;-0.0462;0.0
-0.531;-0.3244;0.0603;0.3991;-0.8457;0.1826;0.0
0.2856;1.1018;0.1575;0.4021;0.3252;-0.2587;0.0
-0.038;0.0668;-0.1396;-0.1923;-0.3994;-0.226;0.0
-0.0004;0.1109;0.0644;-0.3283;-0.4592;-0.2097;0.0
-0.4034;0.5641;-0.2619;-0.3236;-0.4217;0.4441;0.0
-0.4793;0.7191;-0.3129;-0.2162;-0.4223;0.5259;0.0
0.0232;1.4533;-0.0792;2.2463;0.4942;0.0355;0.0
-0.302;1.0281;0.1628;-0.3351;-0.3853;0.4932;0.0
-0.0374;0.6341;-0.173;-0.639;0.2638;0.2316;0.0
-0.4319;0.8051;-0.14;-0.4421;-0.3312;0.5585;0.0
0.2733;1.7581;0.1646;1.6266;0.5036;0.1336;0.0
-0.1893;-0.0767;-0.2895;-0.2815;-0.1929;-0.6183;0.0
-0.1491;1.6886;-0.9796;-0.3186;0.8563;-0.9615;0.0
0.1769;1.0376;0.1319;2.9127;0.3309;-0.8634;0.0
-0.4224;0.663;-0.3198;-0.3459;-0.3396;0.6239;0.0
-0.4141;-0.2315;0.2218;-0.2173;-0.8597;0.3461;0.0
0.1325;0.6297;-0.1539;-0.2759;-0.5882;0.4278;0.0
-0.5672;-0.6345;-0.0778;-0.2989;-0.9253;0.3134;0.0
-0.4418;1.6303;-0.957;-0.3571;0.8412;-1.0269;0.0
0.0771;1.1705;-0.093;-0.4049;0.0558;0.4768;0.0
0.0361;0.2345;-0.0782;-1.5646;-0.2579;-0.2097;0.0
0.1662;1.1709;1.219;-0.2226;0.139;-0.226;0.0
-0.3828;1.3995;-1.4085;-0.2989;0.7959;-0.9615;0.0
-0.1533;0.2979;0.0023;-0.3699;-0.248;-0.1116;0.0
-0.5373;0.8666;-0.0099;-0.188;-0.3203;0.3951;0.0
-0.2545;1.3914;-1.3686;-0.22;0.9374;-0.9452;0.0
0.3359;1.515;0.1632;-1.714;0.3189;0.1826;0.0
0.3862;0.3414;0.2482;0.8082;0.0219;-0.3241;0.0
-0.1412;1.6479;-1.0217;-0.2989;1.2266;-0.7817;0.0
-0.1875;0.7478;-0.0251;-0.3878;0.5213;-0.7654;0.0
-0.3545;-0.5495;0.0823;-0.2342;-0.9601;0.1826;0.0
-0.1816;0.4357;-0.0776;-0.2501;-0.5159;0.3297;0.0
-0.0336;0.9702;-0.0261;-0.1666;0.1317;-0.2587;0.0
0.0818;0.2214;0.0005;-0.3139;-0.325;-0.275;0.0
-0.0546;1.3746;-0.1319;-0.1992;0.4043;-0.1933;0.0
0.2676;2.8374;0.0737;-1.3324;2.114;0.3297;0.0
-0.0869;0.1088;-0.3837;-0.2074;-0.1528;-0.6673;0.0
-0.0946;0.2162;-0.2448;-0.1803;-0.2121;-0.4058;0.0
-0.363;-0.3049;0.0544;-0.3126;-0.8842;0.4278;0.0
-0.3793;0.3992;-0.3436;-0.3233;-0.4602;0.2153;0.0
-0.3604;0.39;-0.0717;-0.2673;-0.4935;-0.1443;0.0
0.1357;1.8173;0.0461;1.901;0.6004;0.4278;0.0
-0.1105;0.1585;-0.2413;-0.3425;-0.2584;-0.0789;0.0
-0.5349;0.9163;-0.2976;-0.3113;-0.3058;0.5749;0.0
-0.442;0.9785;-0.0495;-0.2746;-0.2917;0.3787;0.0
-0.0638;1.0182;-0.0871;1.2731;0.2571;-0.0135;0.0
0.3157;1.2215;1.7866;-1.6359;0.2123;0.4114;0.0
1.5251;1.9933;1.6792;-0.2093;-0.3635;-0.4221;0.0
-1.0269;-0.0813;-1.1634;-0.2525;-0.5351;0.4278;0.0
0.427;1.257;0.3945;0.1968;0.0745;0.1663;0.0
0.2567;1.5347;0.1386;-0.2198;0.3788;0.3951;0.0
0.0482;0.2432;-0.0532;-0.2703;-0.3125;-0.0952;0.0
-0.3192;0.6099;-0.1897;-0.2484;-0.4514;0.6239;0.0
-0.0748;0.1786;-0.3188;-0.2493;-0.1372;-0.5039;0.0
0.0268;0.308;-0.0532;-0.383;-0.2808;-0.177;0.0
-0.2717;2.7253;-0.7296;-0.2989;2.513;1.6046;0.0
-0.0727;0.0962;-0.1921;-0.2679;-0.3344;-0.226;0.0
0.0083;-0.0243;0.0009;-0.3141;-0.5419;-0.3404;0.0
-0.5046;1.4496;-1.1329;-0.3184;0.7226;-0.9452;0.0
-0.3743;1.3495;0.0971;-0.312;-0.1471;0.4114;0.0
-0.1388;0.0373;-0.2688;-0.1945;-0.2886;-0.0952;0.0
-0.1063;0.0785;0.0983;-0.1812;-0.3786;-0.2097;0.0
-0.2339;0.5271;-0.0257;-0.4539;-0.4784;0.8364;0.0
0.2092;1.0608;0.1201;1.7127;0.1827;0.248;0.0
-0.401;-0.4275;-0.0151;-0.2851;-0.9201;0.0519;0.0
-0.075;2.4593;0.015;-0.3364;1.4831;0.3461;0.0
0.2157;1.6144;0.1297;-0.2606;0.307;0.0519;0.0
-0.1022;-0.1687;-0.1158;-0.3577;-0.2501;-0.2097;0.0
0.0151;1.7662;-1.0211;-0.3373;0.8547;-0.9288;0.0
0.427;0.3977;-0.0149;-0.2215;-0.3359;-0.2423;0.0
0.0424;1.7426;-0.9855;-0.7105;0.8058;-0.9452;0.0
-0.022;0.784;1.0316;-0.2424;0.1291;-0.0299;0.0
0.0777;1.3025;-0.0867;-0.0886;0.2623;-0.0135;0.0
-0.0988;0.0162;-0.1656;-0.2383;-0.3619;-0.3241;0.0
-0.6563;0.3492;-0.5692;-0.3122;-0.325;0.0682;0.0
0.2904;1.5145;0.3385;-0.2989;0.3033;-0.0135;0.0
-0.8504;-0.6195;-0.3851;-0.2011;-0.816;0.0519;0.0
0.1551;1.3632;0.2318;-0.2989;0.4323;-0.7327;0.0
-0.0742;-0.1297;-0.0491;-0.3291;-0.5065;-0.275;0.0
-0.1293;-0.048;-0.2112;-0.3135;-0.4935;-0.1606;0.0
0.0226;1.7178;-0.659;2.3908;0.8334;-1.0105;0.0
-0.4959;1.4822;-1.0792;-0.1773;0.9291;-0.9779;0.0
-0.2394;0.6231;-0.1748;-0.3588;-0.4051;0.6076;0.0
-0.3949;0.9497;0.1144;-0.3109;-0.3182;0.6403;0.0
-0.4628;1.1262;-0.0859;-0.2617;-0.2579;0.3951;0.0
0.3795;1.473;1.2672;-0.1741;0.2305;-0.1443;0.0
-0.3204;0.5162;-0.1449;-0.2248;-0.5221;0.4932;0.0
-0.5722;1.3509;-1.3906;-0.2215;1.0134;-0.9615;0.0
-0.737;-0.6593;-0.0839;-0.2707;-0.9138;0.3297;0.0
-0.9404;1.1383;-1.8708;-0.3568;0.7387;-0.9125;0.0
-0.0049;0.2441;-0.1526;-0.3463;-0.1731;-0.4712;0.0
0.6184;1.1909;0.6879;-0.479;-0.0452;-0.2097;0.0
-0.3179;-0.3354;0.271;-0.2044;-0.9008;0.0519;0.0
0.0836;0.1491;-0.1309;-0.2989;-0.3214;-0.3404;0.0
-0.5098;-0.5667;-0.0684;-0.2072;-0.9346;0.1172;0.0
0.1177;0.174;0.0231;-0.2989;-0.3198;-0.2914;0.0
-0.3709;-0.0025;0.1872;-0.2469;-0.647;0.0028;0.0
-0.5817;-0.4822;0.0436;-0.2729;-0.8956;0.1499;0.0
0.3213;1.2594;0.1158;-1.7084;0.3606;0.2153;0.0
-0.4747;0.2964;-0.1457;-0.2273;-0.4228;-0.0135;0.0
-0.9794;2.3065;-2.6172;-0.2791;2.6165;0.248;0.0
-0.4535;-0.4856;0.0143;-0.255;-0.9367;-0.0135;0.0
-0.4042;0.3989;-0.3469;-0.1741;-0.5481;0.6076;0.0
-0.4514;0.0133;0.2305;-0.3253;-0.7437;0.297;0.0
-0.3884;2.1694;-0.5252;2.6361;1.4935;1.6046;0.0
-0.4262;0.4324;-0.1415;-0.2396;-0.5201;0.6239;0.0
-0.4632;0.9727;0.0603;-0.153;-0.2522;0.1663;0.0
0.3811;1.2044;0.2553;-0.2658;0.1785;-0.0462;0.0
0.1482;1.8965;0.1164;-1.7336;0.9582;-0.7981;0.0
-0.243;0.8706;-0.1803;-0.4155;-0.4004;0.8527;0.0
-0.347;-0.3481;0.2057;-0.1825;-0.8987;0.1499;0.0
-0.0937;0.1157;-0.1638;-0.4041;-0.3058;-0.2914;0.0
-0.4745;1.1284;0.173;-0.1953;-0.2392;0.5422;0.0
1.2335;2.2082;0.137;-0.2392;0.6378;-0.8308;0.0
0.4407;1.8396;0.3784;-0.1372;0.7351;-0.7981;0.0
0.0095;0.3148;-0.2415;-0.2508;-0.105;-0.3731;0.0
-0.4504;0.6505;0.0851;-0.2226;-0.4275;0.3624;0.0
-0.5425;-0.3801;-0.0499;-0.3648;-0.8696;0.3624;0.0
0.2539;1.9156;-0.5545;-0.377;0.7876;-0.9779;0.0
0.3536;1.5845;0.2633;-0.3644;0.6118;-0.4548;0.0
-0.4052;-0.2753;0.1787;0.3454;-0.9149;0.0845;0.0
0.1195;1.5679;-0.9434;-0.2793;0.7876;-0.9942;0.0
-0.0584;0.663;0.0162;-0.2737;-0.4316;0.5912;0.0
-0.3202;0.5517;-0.2387;-0.3465;-0.4868;0.5422;0.0
-0.4201;1.2607;0.0483;-0.4099;-0.2022;0.6893;0.0
-0.5343;-0.4286;-0.1103;-0.2338;-0.866;0.2316;0.0
0.2914;2.1648;-0.4841;-0.2797;1.5215;-0.9779;0.0
-0.4371;-0.1863;0.1831;-0.2989;-0.7999;0.1172;0.0
-0.3038;0.6672;-0.172;-0.2868;-0.4155;0.4114;0.0
-0.4672;-0.4302;0.0566;-0.3399;-0.8836;0.2807;0.0
0.3767;1.8857;0.2645;-0.3667;0.5972;0.297;0.0
0.0077;-0.0014;0.1234;-0.3884;-0.5086;-0.3077;0.0
-0.5516;0.8759;-0.1884;-0.2486;-0.2933;0.2807;0.0
-0.5674;-0.3421;-0.1079;-0.4024;-0.8394;0.3461;0.0
-0.5555;1.6298;-1.4478;-0.2989;0.8219;-0.9452;0.0
-0.3814;1.5398;-1.2387;-0.2003;0.9072;-0.8961;0.0
-0.1497;1.0379;-0.0046;-0.3938;-0.3739;0.5585;0.0
-0.3228;0.9582;-0.1901;-0.2989;-0.3494;0.6566;0.0
0.1052;-0.0093;-0.3859;-0.3644;-0.1929;-0.4058;0.0
-0.1065;0.1449;-0.1947;-0.3442;-0.235;-0.2097;0.0
-0.0344;2.6671;-0.6397;-1.3286;2.449;1.4902;0.0
-0.1909;0.133;-0.2887;-0.2319;-0.2506;-0.3241;0.0
-0.7243;1.1124;-1.5065;-0.3375;0.9442;-1.174;0.0
0.0509;1.599;-0.0381;-0.3274;0.4407;-0.1116;0.0
0.2514;1.45;1.7858;-1.4095;0.4953;-0.1606;0.0
-0.0869;0.1151;-0.2075;-0.3278;-0.2735;-0.2587;0.0
-0.2194;0.9063;-0.076;-0.3115;-0.3573;0.4441;0.0
0.0264;1.3317;0.3757;-0.2237;-0.2272;0.2316;0.0
0.0448;0.9543;1.0235;-0.2072;0.0599;0.0355;0.0
-0.3705;-0.3638;0.1486;-0.2724;-0.9097;0.0845;0.0
-0.6443;1.263;-1.595;2.1739;0.9275;-0.9779;0.0
-0.7067;1.2217;-1.6558;-1.4065;0.8729;-0.9615;0.0
-0.4432;1.0978;-0.1154;-0.2989;-0.1986;0.4605;0.0
0.0525;0.1919;-0.0723;-0.3858;-0.1289;-0.7817;0.0
-0.0214;1.5108;-0.1842;-1.65;0.8792;-0.749;0.0
0.0299;2.3173;0.1012;-0.2396;1.6058;0.2643;0.0
-0.2808;0.6828;-0.2259;-0.2273;-0.4498;0.5912;0.0
-0.3123;0.8498;-0.2869;-0.3848;-0.3588;0.4441;0.0
0.2963;1.6471;1.379;-1.8109;0.4386;0.1172;0.0
-0.3303;0.9574;-0.0282;-0.3869;-0.4119;0.4441;0.0
-0.6114;1.4069;-1.608;-0.3373;1.004;-0.9779;0.0
0.0173;0.2359;-0.138;-0.2518;-0.2948;-0.2423;0.0
0.1482;1.4233;0.0908;-0.1266;0.0859;1.2614;0.0
-0.5244;1.4559;-0.9956;-0.2179;0.8786;-1.0105;0.0
0.0278;1.2573;0.0082;-0.4788;0.5655;-0.4385;0.0
0.0553;0.3395;0.0117;-0.2989;-0.2132;-0.2587;0.0
-0.4236;-0.1064;-0.0133;-0.391;-0.7245;0.248;0.0
0.1906;1.5109;-0.1264;-0.1073;0.5873;-0.7817;0.0
-0.2741;1.6253;-0.9617;-0.2413;0.7585;-0.9615;0.0
-0.3145;0.5136;-0.3103;-0.3631;-0.5227;0.9181;0.0
-0.3923;1.1412;0.1565;-0.1973;-0.2673;0.3787;0.0
-0.3301;0.0502;0.2606;0.5176;-0.7489;0.2807;0.0
-0.466;0.838;-0.0932;-0.3725;-0.326;0.5422;0.0
-0.3276;0.4799;0.092;-0.4984;-0.4498;-0.0789;0.0
-0.2507;1.0797;-0.0365;-0.2104;-0.2954;0.2316;0.0
-0.3394;0.653;-0.2501;-0.2497;-0.4457;0.7056;0.0
-0.1652;0.1015;0.3037;-0.3648;-0.6881;0.0519;0.0
-0.0212;0.2019;-0.2767;-0.2989;-0.1908;-0.0789;0.0
-0.5385;2.3809;-1.6314;-0.1853;2.0687;1.5883;0.0
-0.387;0.071;0.1209;-0.2321;-0.6886;0.0682;0.0
-0.3438;1.222;0.1473;-0.1762;-0.2933;0.4441;0.0
-0.0477;0.1149;-0.0308;-0.4026;-0.3635;-0.2097;0.0
-0.3884;-0.1802;0.2067;-0.2989;-0.776;0.0845;0.0
-0.3347;-0.2218;0.1402;-0.2851;-0.8623;0.297;0.0
-0.2535;-0.0319;-0.3121;-0.2553;-0.3208;-0.0462;0.0
-0.3662;0.658;0.2092;-0.286;-0.9024;0.297;0.0
0.3025;1.5079;0.138;-0.2602;0.3424;0.2316;0.0
-0.3834;1.0655;0.1189;-0.2602;-0.3266;0.3624;0.0
0.2177;1.3811;1.3269;0.0177;0.1952;-0.2423;0.0
-0.5476;-0.5356;-0.0215;-0.313;-0.9507;0.248;0.0
0.1559;0.173;0.2185;-0.3586;-0.4556;-0.226;0.0
0.0947;2.5696;0.0182;2.2908;1.5392;-0.0299;0.0
-0.9841;-0.5027;-0.9149;-0.2368;-0.6038;0.4278;0.0
-0.2939;-0.4388;0.1447;-0.3532;-0.9908;0.0028;0.0
0.123;1.1281;0.0473;-0.3109;0.2685;0.2807;0.0
-0.3161;0.9663;-0.2999;-0.3105;-0.3468;0.673;0.0
0.2716;1.0452;0.2539;-0.1872;-0.4165;0.5095;0.0
-0.2248;0.1036;0.2342;-0.3128;-0.7963;0.0519;0.0
-0.5353;1.0984;-0.0339;-0.3476;-0.2028;0.3624;0.0
-0.387;-0.272;-0.609;-0.2035;-0.351;-0.2914;0.0
0.0878;2.0279;-0.7003;-0.2387;1.2485;-0.9615;0.0
0.0137;0.1467;-0.0975;-0.2248;-0.3546;-0.226;0.0
-0.0675;0.1265;-0.1543;1.2744;-0.3318;-0.275;0.0
0.1307;0.213;-0.3231;-0.3302;-0.2569;-0.2587;0.0
-0.6019;1.9474;-0.742;2.0092;1.5377;0.3134;0.0
-0.3014;-0.1485;0.2019;-0.4146;-0.8738;0.3461;0.0
0.2541;0.495;0.3456;-0.2681;-0.1518;-0.4221;0.0
-0.2145;0.0875;-0.0967;-0.3137;-0.3859;-0.177;0.0
-0.2489;1.9538;-0.3646;-0.1885;1.662;1.4902;0.0
-0.2301;0.4831;0.1608;-0.1185;-0.3796;-0.3731;0.0
-0.4476;-0.4064;0.0219;-0.286;-0.8519;0.2153;0.0
-0.5056;-0.3907;-0.0784;0.6215;-0.8478;0.248;0.0
-0.385;0.0047;0.2313;-0.2578;-0.7916;0.1499;0.0
-0.3923;0.8583;-0.2852;-0.2018;-0.3437;0.3624;0.0
-0.3256;0.5497;-0.3046;-0.3708;-0.4524;0.5095;0.0
-0.3844;0.8835;0.1321;-0.3362;-0.3146;0.4114;0.0
-0.2602;-0.0179;-0.4134;-0.3143;-0.1195;-0.4712;0.0
-0.1685;0.1748;-0.1608;-0.4017;-0.2787;-0.2423;0.0
0.0596;0.1486;-0.0731;-0.3272;-0.3853;-0.1443;0.0
-0.5474;0.9348;-0.2143;-0.3498;-0.3125;0.4441;0.0
-0.3391;0.047;0.1016;-0.3375;-0.6886;0.3461;0.0
-0.531;1.3078;-1.5928;-1.3676;1.198;-0.9942;0.0
-0.4183;0.7874;0.0658;-0.213;-0.3905;0.5095;0.0
0.1595;0.339;-0.0064;-0.2531;-0.2725;-0.2423;0.0
-0.4721;0.6238;-0.2885;-0.4367;-0.3874;0.3787;0.0
-0.2186;-0.0858;-0.5624;-0.3435;-0.2064;-0.275;0.0
0.6877;3.071;0.9104;-0.2488;0.7091;-0.275;0.0
0.1892;0.1854;-0.2077;-0.3158;-0.2064;-0.6346;0.0
-0.409;0.7766;-0.1846;-0.2724;-0.4582;0.8691;0.0
-0.7086;-0.5532;-0.2206;-0.2544;-0.8093;-0.1116;0.0
-0.5894;0.8035;-0.0703;-0.2989;-0.2501;0.6403;0.0
-0.4042;0.9626;0.0516;-0.2853;-0.2849;0.1826;0.0
-0.3494;0.3066;-0.2873;-0.3242;-0.5471;0.722;0.0
-0.3278;1.1152;-0.0396;-0.348;-0.3234;0.673;0.0
-0.4248;0.8843;-0.0666;-0.3734;-0.3427;0.4114;0.0
-0.406;0.658;0.1307;0.1783;-0.8129;0.1499;0.0
-0.0659;0.0956;-0.211;-0.3281;-0.1736;-0.6673;0.0
-0.4377;-0.2007;-0.5287;-0.3573;-0.2199;-0.5856;0.0
-0.6868;1.0382;-0.2238;-0.2752;-0.2657;0.297;0.0
-0.4345;0.5316;-0.1591;-0.3828;-0.441;0.7056;0.0
-0.2289;1.7405;-0.8781;-0.3375;0.9561;-0.9288;0.0
-0.3194;0.6652;-0.0827;-0.2018;-0.429;0.5095;0.0
-0.3923;0.9937;0.0007;-0.4758;-0.2719;0.5912;0.0
-0.2707;0.8566;-0.0172;-0.275;-0.4566;0.4278;0.0
-0.2575;-0.2928;0.1705;-0.3826;-0.9206;0.2153;0.0
0.1161;0.2593;0.0442;-0.3418;-0.287;-0.177;0.0
0.3084;0.89;0.2757;-0.3547;-0.1341;0.1009;0.0
-0.9996;0.1246;-0.9956;-0.4075;-0.4758;0.6893;0.0
0.0787;0.2128;-0.0361;-0.2843;-0.3323;-0.2587;0.0
0.059;-0.0398;-0.0666;-0.3416;-0.4046;-0.1116;0.0
-0.2363;1.3798;-1.1295;-0.3564;0.8422;-1.1413;0.0
-0.2584;0.8233;-0.161;-0.2989;-0.3838;0.5095;0.0
0.0036;0.1544;-0.053;-0.3442;-0.2886;-0.3241;0.0
-0.0764;1.0026;0.93;-0.2989;0.127;0.1172;0.0
-0.671;0.7756;-0.3481;-0.3229;-0.3396;0.4605;0.0
-0.4908;0.283;-0.1486;-0.2087;-0.44;-0.6183;0.0
-0.1057;0.0886;-0.1504;-0.3135;-0.3744;-0.2423;0.0
-0.472;-0.1214;0.0996;-0.1999;-0.8228;0.0192;0.0
-0.0655;1.2447;-0.6654;-0.3386;0.6264;-1.0105;0.0
0.3096;-0.4811;0.5431;-0.3652;-0.9377;-0.3077;0.0
-0.1612;1.0145;0.0941;-0.2989;-0.2959;0.5095;0.0
-0.5541;0.0044;-0.0436;-0.4487;-0.6626;0.4114;0.0
0.6718;2.2197;0.0593;-0.1223;0.8048;-0.8961;0.0
-0.3097;0.4226;-0.3737;-0.2523;-0.4852;0.6239;0.0
-0.0701;0.7693;0.464;-0.2415;-0.4025;0.8691;0.0
0.325;1.3714;0.2197;0.849;0.1473;0.1499;0.0
-0.4783;1.0824;-0.1836;-0.211;-0.2907;0.3951;0.0
-0.3553;1.2441;0.0135;-0.2248;-0.2241;0.4278;0.0
-0.3486;1.5727;-1.5267;-1.2193;1.2167;-1.0923;0.0
-0.5518;0.8027;-0.0965;-0.4155;-0.274;0.6893;0.0
-0.6155;1.0479;-0.188;-0.2989;-0.2262;0.4441;0.0
0.1846;1.5931;0.0235;-0.2989;0.4209;0.3951;0.0
-0.0673;0.1261;-0.1616;0.684;-0.286;-0.2587;0.0
-0.0479;0.1519;-0.1921;-0.3145;-0.1679;-0.4385;0.0
-0.1291;0.8966;0.041;-0.1567;-0.4332;0.4768;0.0
0.108;0.177;-0.2661;-0.2168;-0.2511;-0.3894;0.0
-0.427;-0.1887;-0.0446;-0.3362;-0.7739;-0.0135;0.0
-0.5147;0.8564;-0.1136;-0.2626;-0.3333;0.771;0.0
-0.1014;-0.0324;-0.5077;-0.3446;0.0641;-0.275;0.0
-0.3921;0.6372;-0.1699;-0.3721;-0.416;0.8364;0.0
0.4011;1.4545;1.2907;-0.1696;0.1473;-0.0952;0.0
-0.4561;-0.236;-0.1866;-0.3373;-0.7635;0.1826;0.0
0.1313;0.9752;0.0849;0.7749;0.3554;-0.4385;0.0
-0.2022;-0.0776;-0.2852;-0.3607;-0.1986;-0.3241;0.0
0.0517;0.5818;0.1522;-0.4421;-0.3853;-0.3894;0.0
-0.385;1.0632;-0.0109;-0.3833;-0.3484;0.7056;0.0
-0.4587;1.1023;0.0176;-0.312;-0.2085;0.2807;0.0
-0.5765;-0.5948;-0.0587;-0.2989;-0.958;0.0355;0.0
-0.4961;1.3001;0.0589;-0.2589;-0.1133;0.1336;0.0
-0.1145;-0.0827;-0.2114;-0.2843;-0.3583;-0.0952;0.0
-0.2374;-0.0922;0.1799;-0.2299;-0.8295;0.1009;0.0
0.0878;0.6341;0.3733;-0.4294;-0.5107;-0.2423;0.0
0.3211;1.9286;0.2189;-0.1885;0.526;0.199;0.0
-0.3939;0.5446;-0.4099;-0.4238;-0.428;0.5422;0.0
-0.2915;1.191;-0.0452;-0.2488;-0.3307;0.5422;0.0
-0.769;2.2586;-2.3719;-0.4129;2.4635;0.2316;0.0
0.1432;1.6534;0.0495;-0.312;0.5686;-0.0952;0.0
-0.3171;0.9739;0.0878;-0.2739;-0.3037;0.2643;0.0
-0.4508;-0.3087;-0.5927;-0.4127;-0.1388;-0.6019;0.0
0.2272;0.1749;0.0463;-0.2989;-0.2574;-0.7981;0.0
-0.5789;2.3675;-1.2543;-0.2402;2.889;0.4768;0.0
-0.3503;1.1449;-1.3951;1.8877;0.7907;-0.8961;0.0
-0.3091;-0.3533;0.0326;-0.3388;-0.9133;0.2807;0.0
-0.2588;1.0481;0.1354;-0.2623;-0.3583;0.4932;0.0
-0.1422;0.172;-0.213;-0.2233;-0.2532;-0.177;0.0
-0.0323;1.6276;-0.1506;-0.4183;0.4147;0.8037;0.0
-0.2416;0.5636;-0.3031;-0.3225;-0.4654;0.4768;0.0
-0.2535;-0.1427;0.2171;-0.0377;-0.8457;-0.0299;0.0
-0.4377;0.0284;0.2726;-0.3257;-0.7853;0.248;0.0
0.0293;1.4048;-0.0514;-0.2578;0.3652;0.2807;0.0
-0.3757;0.193;0.0745;-0.9826;-0.6038;0.2153;0.0
-0.4502;1.3958;-1.5439;2.0801;0.8459;-0.9615;0.0
-0.6082;-0.524;-0.0796;-0.3513;-0.8441;0.2643;0.0
0.1769;0.8813;0.0402;1.0027;0.1702;0.1336;0.0
0.0991;0.1225;0.0538;-0.4672;-0.4467;-0.1606;0.0
-0.1663;0.0704;0.3172;-0.1483;-0.8046;0.3461;0.0
-0.1865;1.0253;0.2376;-0.3124;-0.3125;0.3461;0.0
0.1917;1.7842;0.0556;-0.2321;0.2779;0.8854;0.0
-0.6437;-0.4514;-0.1933;-0.2306;-0.6922;0.1826;0.0
-0.4783;0.4261;-0.2608;-0.1069;-0.4322;0.5422;0.0
-0.2384;1.4767;-1.0207;-0.22;0.915;-1.2721;0.0
-0.45;-0.2616;-0.0225;-0.2581;-0.7619;0.0355;0.0
-0.2961;1.3959;-1.0845;-0.2989;0.6924;-1.0105;0.0
0.2157;1.5674;0.0446;-0.2273;0.3912;-0.1116;0.0
-0.1093;-0.015;-0.222;-0.3298;-0.4441;-0.2587;0.0
-0.2895;1.7355;-0.6731;-0.3184;0.8968;-0.9779;0.0
0.2571;1.1486;0.185;0.3851;0.1369;0.5749;0.0
0.1;0.2161;0.0808;-0.2248;-0.3697;-0.0299;0.0
-0.3674;-0.2244;0.1083;-0.35;-0.8545;0.3624;0.0
-0.1867;-0.0114;0.3111;-0.2989;-0.8332;0.1826;0.0
0.2034;1.5056;-0.0566;1.5716;0.5442;0.2643;0.0
-0.4927;0.2222;-0.1595;-0.3324;-0.5367;0.3624;0.0
-0.0348;0.244;-0.4038;-0.3491;-0.1866;-0.5856;0.0
-0.3016;0.038;0.0993;-0.3126;-0.6647;0.248;0.0
-0.2077;-0.3105;0.1598;-0.2441;-0.9346;0.0845;0.0
-0.4517;-0.0838;0.1742;-0.3248;-0.7895;0.2643;0.0
-1.1921;0.9108;-1.847;-0.318;0.7595;-0.9288;0.0
-0.5666;-0.2269;0.1089;0.1586;-0.7416;0.1663;0.0
0.6514;-0.8042;0.3859;-0.426;-1.0043;-0.1116;1.0
0.5795;-0.5149;0.2635;-0.2701;-0.8332;-0.2097;1.0
0.7513;0.3603;0.6875;1.9105;-0.6745;0.1826;1.0
0.0939;-0.9554;-0.1966;-0.2843;-1.0043;2.4055;1.0
0.2151;0.8874;0.1;-0.2231;-0.1502;0.5422;1.0
-0.3;-0.8653;0.0518;-0.9841;-0.7125;-0.0952;1.0
0.0989;-1.1136;-0.2633;3.1826;-1.1073;2.193;1.0
0.1238;-1.3474;-0.1272;-0.2061;-1.0173;-0.3077;1.0
-0.0235;-1.496;-0.4547;-1.6204;-1.1702;2.3891;1.0
0.0133;-0.9176;-0.3288;-1.585;-0.8431;-0.2423;1.0
0.0656;-1.1122;-0.4331;-1.6823;-0.8712;-0.0462;1.0
0.0408;-1.2117;-0.2401;-1.5639;-1.0709;2.2257;1.0
0.3167;-0.8766;-0.0963;-0.2989;-0.9117;-0.2423;1.0
0.1339;-0.7908;-0.307;-0.2989;-0.8295;-0.2097;1.0
0.2658;-0.6929;-0.0589;3.6538;-0.8067;-0.226;1.0
0.45;-1.5236;0.3164;-1.5921;-1.1952;-0.2587;1.0
-0.7863;0.9602;-0.522;-0.0289;0.2456;0.5749;1.0
-0.1271;1.9578;-0.5071;-0.3379;0.863;-1.0432;1.0
0.1236;-0.4193;0.4831;-0.0356;-0.8145;-0.0299;1.0
0.4122;-0.3104;0.1465;0.2423;-0.7318;-0.5202;1.0
0.43;-1.0454;0.1809;-1.6326;-0.995;-0.1279;1.0
0.1941;-0.9463;-0.2019;-0.4174;-0.8587;-0.0952;1.0
0.3161;-1.1004;0.1423;-1.8747;-1.0033;-0.2423;1.0
0.8117;-0.6638;0.5751;3.1401;-1.0007;-0.2587;1.0
0.5786;-0.5432;0.2527;-0.313;-0.8904;-0.1279;1.0
0.2755;-0.7832;-0.1305;-1.7819;-0.854;-0.0952;1.0
0.427;-0.4967;0.0446;-0.2112;-0.8155;-0.1116;1.0
0.7606;1.0458;1.1368;-0.0326;-0.2954;-0.749;1.0
0.1816;-1.1858;-0.1376;-1.5521;-1.0886;2.3728;1.0
0.3607;-0.9683;-0.1911;-0.255;-1.0777;2.4872;1.0
0.2599;-1.4129;-0.0324;3.7055;-1.0178;-0.1606;1.0
0.0048;-1.2072;-0.3141;-1.6221;-0.9091;-0.1279;1.0
0.4615;-0.8249;-0.0414;-0.2379;-0.9029;-0.2097;1.0
0.1519;-1.4426;-0.209;1.9592;-0.9742;-0.1279;1.0
0.2482;-0.9999;-0.0996;-0.2701;-1.1708;4.4322;1.0
0.2658;-1.2132;-0.0394;-1.6488;-1.0355;-0.226;1.0
0.0725;-1.5288;0.3642;-0.4977;-1.1562;-0.4385;1.0
0.4243;-0.7079;0.1205;-0.284;-0.8524;-0.275;1.0
0.7782;-0.5445;0.1286;-0.4874;-0.841;-0.1606;1.0
0.1985;-1.0083;-0.1116;-0.2561;-0.9253;-0.0952;1.0
0.3021;-0.8808;-0.1534;-0.2843;-0.9097;-0.0626;1.0
0.3843;-1.0264;-0.054;-0.313;-0.919;-0.0462;1.0
0.2064;-0.8613;-0.0985;-0.7301;-0.8769;-0.2423;1.0
0.2591;-0.9521;-0.0032;2.3318;-0.9273;-0.226;1.0
0.1852;0.2009;0.3955;1.721;-0.6017;0.7874;1.0
0.0848;-1.2585;-0.2549;-1.5648;-0.9284;-0.0626;1.0
0.079;-1.3656;-0.1675;-0.4741;-1.021;-0.0952;1.0
-0.1424;-1.4252;-0.4146;-1.6056;-0.9518;-0.1279;1.0
0.2424;-0.6982;-0.1199;-0.1945;-0.8639;-0.226;1.0
0.2187;-0.6824;-0.0164;-1.5485;-0.8972;-0.0135;1.0
0.3916;-1.2287;0.0176;-0.449;-1.0314;-0.177;1.0
-0.019;-1.073;-0.4071;0.3596;-0.892;-0.0952;1.0
0.2609;-1.0528;-0.089;-1.649;-1.0033;1.8007;1.0
0.2007;-1.0573;-0.0971;-0.2392;-1.1052;2.6833;1.0
0.5471;-0.6285;0.1606;-0.3137;-0.8842;-0.275;1.0
0.2189;-0.847;-0.3902;-0.3558;-1.0017;2.4545;1.0
0.0709;-1.0135;-0.2964;-0.2548;-0.8888;-0.0952;1.0
0.2957;-0.7808;-0.0298;2.5961;-1.0922;2.9285;1.0
0.5292;-0.9994;0.0591;-1.6296;-0.9414;-0.1443;1.0
0.2143;-0.4702;0.3044;-0.4421;-0.7739;0.0192;1.0
0.0579;-0.819;0.5954;1.4752;-1.0927;-0.1279;1.0
0.3845;-1.4136;0.2185;-0.4513;-1.1453;-0.1933;1.0
0.3078;-1.3489;0.1404;-0.3699;-1.1869;2.2584;1.0
0.5681;-0.6103;0.256;-0.2847;-0.8576;-0.0299;1.0
0.2074;-0.7798;-0.1825;-0.371;-0.8327;-0.1933;1.0
0.1735;-0.64;-0.2879;1.3884;-0.7427;-0.0299;1.0
0.1525;-1.1412;-0.1545;-0.3581;-0.9455;-0.3241;1.0
0.2551;-0.842;-0.1506;-0.3682;-0.8831;-0.275;1.0
-0.3735;-1.2285;0.235;-0.8149;-0.8139;0.2316;1.0
0.085;-0.9087;-0.3328;2.9919;-0.8888;-0.1443;1.0
0.0781;-1.1343;-0.186;-0.4311;-1.0563;2.6016;1.0
0.4938;-1.4576;0.382;-0.4874;-1.2295;2.2911;1.0
0.3009;-1.3069;0.0282;-1.6256;-1.0636;-0.3241;1.0
0.0672;-1.2521;-0.2759;-0.3734;-0.9528;-0.1279;1.0
0.0531;-0.822;-0.3949;-0.3564;-0.9351;2.6016;1.0
0.3534;-0.4709;0.5942;-0.3994;-0.7193;-1.3538;1.0
0.1785;-1.3226;-0.0658;3.678;-1.0693;-0.226;1.0
0.2916;-0.6456;0.7186;-1.5448;-0.8285;-0.2423;1.0
-0.0224;-1.1269;-0.4522;-0.2692;-0.8436;-0.1933;1.0
0.2446;-0.8628;-0.223;-0.2396;-0.9752;1.9315;1.0
0.2371;-0.9997;-0.2421;3.0286;-0.8831;-0.1116;1.0
0.2026;-0.886;-0.1254;-0.3132;-0.8769;-0.1279;1.0
-0.1012;-0.9442;0.5462;1.9641;-1.1593;0.1009;1.0
0.1165;-1.067;-0.3757;-0.2681;-0.9409;-0.2097;1.0
0.1741;-0.8541;-0.3534;1.7341;-0.8015;-0.1116;1.0
0.2769;-1.4282;0.0009;-0.2843;-1.0787;-0.2423;1.0
0.0208;-1.1733;-0.5055;-0.3429;-0.8748;-0.1116;1.0
0.1232;-0.9299;-0.3233;-0.2838;-0.8223;-0.0952;1.0
0.0953;-0.8789;-0.3198;-0.3281;-0.8238;-0.1279;1.0
0.1896;-1.1361;-0.3827;-0.3132;-1.0699;3.1083;1.0
0.1775;-0.9702;-0.1848;-0.75;-0.9008;-0.0952;1.0
0.1791;-1.0851;-0.1242;-0.3268;-0.9606;-0.1443;1.0
-0.0455;-0.0795;0.1036;-0.2166;-0.5003;0.7547;1.0
0.2466;-1.0912;-0.0512;-0.3549;-0.9955;-0.2587;1.0
0.2504;-0.7292;-0.2623;-0.4127;-0.8254;0.0192;1.0
0.4502;-0.9375;0.0495;-0.2237;-0.9695;-0.1443;1.0
0.0921;-0.8229;-0.3328;-0.2701;-0.8119;-0.0626;1.0
0.2072;-0.9388;-0.22;3.6198;-0.8831;-0.0952;1.0
0.2963;-0.8358;-0.0753;-0.2989;-0.8732;-0.0789;1.0
-0.0495;-1.1738;-0.4965;1.8175;-0.9221;-0.1279;1.0
0.1028;-1.1056;0.4723;-0.2226;-1.1011;-0.4712;1.0
0.2314;-0.7071;-0.0841;-0.3425;-0.8348;-0.1443;1.0
0.3953;0.9679;0.296;-0.3233;0.321;2.4872;1.0
0.4845;-0.5646;0.0461;-0.1646;-0.855;-0.1443;1.0
0.191;-0.9722;-0.2299;-0.3278;-0.8966;-0.1606;1.0
0.1317;-1.1641;-0.0074;-0.2254;-1.1484;5.6581;1.0
0.2125;-0.5766;0.6765;-0.3242;-0.711;-1.6316;1.0
0.2163;-1.1303;-0.1528;2.8757;-1.0823;2.4055;1.0
0.2084;0.4392;0.2964;-0.3143;-0.5164;-0.5529;1.0
0.0592;-1.1727;-0.453;-0.2692;-0.9908;1.4248;1.0
0.0547;-1.3658;-0.1795;-0.2267;-0.9102;-0.1443;1.0
0.1925;-0.7001;-0.0776;-0.2709;-1.0506;4.3668;1.0
0.0745;-0.7419;-0.4248;-0.1883;-0.7484;-0.1443;1.0
0.1331;1.0634;0.1616;0.215;0.4329;-1.0105;1.0
0.287;-0.8804;0.0422;-0.4683;-0.866;-0.2587;1.0
0.2652;-0.8868;1.9052;-0.2989;-0.3094;-1.1413;1.0
-0.5664;0.5178;-1.0137;-0.1865;-0.3271;0.722;1.0
0.3793;-0.678;-0.152;-0.2843;-0.8493;-0.0789;1.0
0.1985;-1.2837;-0.1345;-0.4573;-1.0584;-0.2587;1.0
0.1092;-0.704;-0.3682;-0.2697;-0.7895;-0.2423;1.0
0.0959;-1.0281;-0.2738;-0.2701;-0.8207;-0.0952;1.0
-0.6043;-0.4457;-0.1315;-0.3386;-0.8576;0.1663;1.0
0.0147;-1.0723;-0.2256;-0.2989;-0.8888;-0.0789;1.0
0.0646;-0.5466;0.584;-0.2849;-0.8868;-0.9942;1.0
0.3948;-0.8231;0.1624;-0.3276;-0.8857;-0.226;1.0
0.2686;-0.9026;-0.0926;-0.3573;-0.9424;-0.226;1.0
0.3153;-0.8665;-0.0034;1.895;-0.8852;0.0682;1.0
0.7398;-0.1148;0.2053;-0.359;-0.7895;-0.2423;1.0
0.0426;-1.1361;-0.1921;-0.3272;-0.8873;-0.0135;1.0
0.3153;-0.9783;-0.0536;-1.6077;-1.061;1.8988;1.0
0.1939;-1.0631;-0.1736;-0.3416;-0.9221;-0.0789;1.0
0.0844;-1.099;-0.2753;-0.3985;-0.8972;0.0028;1.0
-0.5011;-0.9825;0.09;2.0258;-0.8566;-0.1443;1.0
0.613;-0.6109;0.2675;-0.8435;-0.9065;-0.0626;1.0
-0.4771;-1.1062;-0.2061;-0.3959;-0.7115;0.2153;1.0
0.3858;-0.6535;-0.0125;-1.5485;-0.8374;-0.0789;1.0
0.165;-0.9131;-0.0813;-0.3132;-0.9357;-0.2587;1.0
0.1076;0.7057;0.2055;-0.9517;0.101;-1.2884;1.0
0.0064;-0.744;-0.221;-0.2237;-0.6964;-0.1606;1.0
0.4571;-0.5466;-0.0835;-0.2553;-0.7963;-0.1606;1.0
0.2159;-0.6611;-0.2287;-0.2243;-0.8191;-0.2097;1.0
0.086;-0.8716;-0.33;-0.2989;-0.7214;-0.1443;1.0
-0.3715;0.2525;0.0577;-0.3147;-0.2407;-1.0596;1.0
0.1349;-1.0736;-0.5417;-1.6195;-1.1531;7.8483;1.0
0.1745;-0.9746;-0.2659;3.0935;-0.853;-0.226;1.0
0.4241;-0.3459;0.3495;-0.0367;-0.8592;0.2643;1.0
0.6124;-0.2923;0.0841;-0.2553;-0.7885;-0.177;1.0
-0.4413;-1.5021;-0.8189;-1.6477;-0.9929;2.5036;1.0
-0.0628;-1.0076;-0.4121;-0.3272;-0.8493;-0.1116;1.0
-0.1454;-0.6343;0.0322;-0.0429;-0.6959;0.0519;1.0
0.1399;-0.9873;-0.4323;-0.3435;-0.8498;-0.1606;1.0
-0.0887;-0.206;0.2989;-1.119;-0.713;-0.6019;1.0
0.0769;-1.3245;0.2759;0.7837;-1.126;-0.7817;1.0
0.1943;0.2087;0.547;-0.5033;-0.183;-1.5499;1.0
-0.5672;1.0106;-0.3497;-0.0143;0.2212;0.4278;1.0
-0.3608;-0.8629;-0.1553;-0.5744;-0.6303;-1.0596;1.0
0.1193;-0.35;0.6361;-0.272;-0.8977;-0.1606;1.0
0.084;-0.7281;-0.365;3.3269;-0.7645;-0.1606;1.0
0.2957;0.588;0.7597;-0.2054;-0.3448;-1.0105;1.0
-0.0091;-1.3518;-0.2106;2.5835;-1.0002;-0.2587;1.0
0.0386;-1.4318;-0.0025;-0.4374;-0.9559;-0.2097;1.0
0.4084;-1.0107;0.081;1.2007;-1.2665;8.1751;1.0
0.0478;-0.3004;0.0286;0.6054;-0.6813;-0.5366;1.0
0.0842;-1.25;-0.2586;-1.6039;-1.0943;3.2718;1.0
0.1507;-1.1414;-0.0998;2.4359;-1.0803;2.5036;1.0
0.6025;-0.4798;0.7312;1.6925;-1.0709;-0.3894;1.0
0.2718;-0.9431;-0.2409;-0.2694;-0.894;-0.1116;1.0
-0.0352;0.6712;0.4077;-1.3307;0.1494;-1.4519;1.0
0.2815;-0.1535;1.0607;-0.3261;-0.9102;-0.5856;1.0
-0.0943;-1.6954;0.2555;2.1617;-1.1234;1.0816;1.0
0.1024;-1.0546;-0.1457;-0.3751;-0.8426;-0.0789;1.0
0.2575;-0.6985;-0.1825;5.5465;-0.8634;-0.177;1.0
0.3706;-0.9747;0.0526;3.5189;-0.9471;-0.1279;1.0
0.1589;-1.1506;-0.1256;-1.7155;-1.0459;2.7324;1.0
0.3221;-0.4346;-0.2173;-0.485;-0.7208;-0.2097;1.0
0.4165;-0.618;0.2783;-1.8581;-0.8483;-0.177;1.0
0.0489;-0.9291;-0.3719;-0.3287;-0.8254;-0.1116;1.0
0.2343;-0.9068;-0.2519;-0.4402;-0.8706;-0.0789;1.0
0.5437;-0.36;0.129;-0.3274;-0.7994;-0.1279;1.0
0.5984;-0.7269;0.224;-0.3137;-0.9247;-0.2423;1.0
0.0287;-0.9943;-0.4298;3.4429;-1.048;2.5362;1.0
0.4514;-0.4456;0.0512;-0.2701;-0.8067;-0.1116;1.0
0.2985;-0.9462;-0.1136;-0.4026;-1.1354;4.138;1.0
0.0147;-1.3756;-0.2954;-1.6335;-1.0184;-0.1116;1.0
0.0989;-0.796;-0.2799;2.8998;-0.7786;-0.1279;1.0
-0.0049;0.5423;0.0644;0.2064;-0.4441;0.9345;1.0
0.3367;-0.9805;-0.0806;-0.2263;-1.0959;3.9582;1.0
0.6061;-0.5119;0.3316;-0.284;-0.8613;-0.1279;1.0
0.66;-1.7517;0.8978;0.0153;-1.2145;-0.8471;1.0
0.266;-0.6435;-0.1685;2.8113;-0.711;-0.177;1.0
0.5772;-0.6033;0.2161;1.2658;-0.8701;-0.226;1.0
-0.0105;-1.1112;-0.393;3.2279;-0.9409;-0.3077;1.0
0.0735;-0.9676;-0.2629;-0.2392;-0.8784;-0.0135;1.0
0.2892;-0.8249;-0.056;-0.2093;-0.8727;-0.1606;1.0
0.2516;-1.3229;-0.0164;-0.3714;-1.2426;6.1484;1.0
0.5455;-0.8129;0.2863;-0.4236;-0.9523;-0.177;1.0
0.699;-0.4935;0.2712;-0.3581;-0.8816;-0.1279;1.0
0.4627;0.2164;0.8384;2.8309;-0.5908;-1.1576;1.0
-0.0178;-0.8636;-0.4502;-1.6125;-0.8243;-0.0626;1.0
0.2825;-0.7734;-0.1581;-1.6024;-0.8701;-0.3241;1.0
0.4977;0.1241;0.4089;-1.0588;-0.6319;-0.275;1.0
0.5637;-0.4886;1.3054;-0.6779;-1.0813;-0.651;1.0
0.3064;-1.0139;0.0788;-0.5982;-0.9216;-0.2914;1.0
0.0367;-1.1214;-0.3471;3.9014;-0.9133;-0.1606;1.0
0.2694;-0.8902;-0.201;-1.5991;-0.868;-0.2423;1.0
0.0868;-0.3636;-0.1307;0.3207;-0.6964;-0.2097;1.0
0.1658;0.1328;0.1742;-0.3738;-0.1664;-1.5663;1.0
0.0509;-1.0257;-0.1152;-0.2703;-0.9071;-0.1116;1.0
0.4613;-0.5474;0.0286;-0.6979;-0.8082;-0.177;1.0
0.1187;0.4203;0.2802;-1.5147;-0.1377;-1.3211;1.0
0.574;-0.7418;0.2507;-0.3281;-0.8951;-0.1443;1.0
-0.084;-0.7842;-0.5395;-1.6097;-0.725;-0.2097;1.0
0.2123;-0.9023;-0.2787;-0.3425;-0.9143;-0.177;1.0
0.2423;0.2571;0.6924;0.3147;-0.6184;-0.0952;1.0
0.1931;-0.8892;-0.1868;-1.422;-0.8374;-0.2097;1.0
0.127;-0.9079;-0.2901;-0.2557;-0.866;-0.0952;1.0
0.2999;-0.6717;-0.0353;-0.2989;-0.841;-0.0299;1.0
0.1296;-0.8544;-0.4036;-1.8687;-0.8472;-0.0789;1.0
0.1848;-1.4775;-0.2328;-0.3272;-0.9169;-0.1116;1.0
0.4064;-0.6085;-0.0011;-0.3276;-0.8571;-0.0462;1.0
0.7818;-0.3562;0.3652;-0.4165;-0.8748;-0.1933;1.0
0.575;-0.4022;0.2014;-0.2989;-0.854;-0.1443;1.0
0.3084;-1.0273;-0.03;-0.2705;-1.1094;2.5853;1.0
0.0008;-1.4131;-0.2136;-0.2538;-1.0439;-0.2423;1.0
0.0329;-1.2195;-0.2431;-0.4707;-1.0922;2.8468;1.0
0.6291;-0.7235;0.2763;-0.2392;-0.8774;-0.1606;1.0
0.1036;-1.2501;-0.1927;-0.3139;-0.9742;-0.3241;1.0
0.6071;-0.6346;0.1933;-0.4103;-0.8925;-0.0299;1.0
0.0674;-1.0717;-0.2651;-0.4118;-0.9045;-0.1443;1.0
0.3726;-0.6106;-0.066;-1.5953;-0.8108;-0.3077;1.0
-0.2289;-1.2206;-0.7878;-1.6204;-1.0012;2.6507;1.0
0.1925;-0.726;-0.1823;-0.2843;-0.8337;-0.2097;1.0
-0.32;1.1838;-0.6389;-0.3304;0.5598;-0.0135;1.0
0.2947;-0.4957;-0.2356;-0.2027;-0.5913;0.8691;1.0
0.2139;-1.1161;-0.1984;-1.5908;-0.8935;-0.0462;1.0
0.2563;0.2864;0.654;-0.2989;-0.3115;-1.174;1.0
0.2587;-0.8063;-0.1988;3.0398;-0.8592;-0.2587;1.0
0.5106;-0.3904;0.1211;-0.2267;-0.7853;-0.0952;1.0
0.4843;-0.7414;-0.0125;-1.9503;-0.9107;-0.0626;1.0
-0.322;-1.3907;0.211;0.0591;-1.2379;0.1663;1.0
0.3235;-0.597;0.0749;-0.284;-1.1323;8.3549;1.0
0.2638;-1.2319;-0.1894;2.9062;-1.0433;-0.2423;1.0
0.0394;-1.1443;-0.3066;3.0097;-1.0522;2.618;1.0
0.1309;-1.2648;0.3625;-0.7067;-1.021;-1.7134;1.0
0.2906;-1.1475;-0.0072;-1.641;-1.0033;-0.1606;1.0
0.1107;-1.0743;-0.1156;-0.1973;-0.8956;-0.0135;1.0
0.1814;-1.0327;0.1589;-0.2692;-1.0792;-0.1116;1.0
0.3084;-1.0591;-0.0599;-0.2061;-1.0017;-0.226;1.0
0.1173;-1.4523;-0.2116;-0.3577;-0.9986;-0.0626;1.0
0.0309;-1.2903;0.3692;0.2715;-1.1468;-0.4875;1.0
0.0585;-1.2853;-0.2442;2.5914;-0.9466;-0.0789;1.0
-0.2145;-0.2813;0.0617;-0.3253;-0.8779;-0.1606;1.0
0.4668;-0.9828;0.09;1.3807;-0.7677;-0.1116;1.0
0.1753;-0.6106;0.8834;-0.2596;-1.0366;0.0355;1.0
0.0478;-1.0836;-0.3566;-0.4741;-0.8883;-0.0952;1.0
0.5047;-0.8426;0.1734;-0.3562;-0.9591;-0.0626;1.0
0.0824;-1.2213;-0.2924;-0.2989;-0.9913;-0.2097;1.0
0.3009;-0.9405;0.0139;-0.4322;-0.906;-0.0789;1.0
0.5597;-0.983;0.115;-0.3581;-0.9887;-0.2097;1.0
0.4488;-0.6098;0.0046;-0.2548;-0.8389;-0.1933;1.0
0.328;-0.8203;0.0465;-1.6084;-0.8738;-0.275;1.0
0.1608;-0.9025;-0.3365;-0.2699;-0.8753;-0.1116;1.0
-0.0026;-0.6939;-0.3265;1.7292;-0.7494;0.0192;1.0
0.125;-1.0096;-0.2438;-1.6022;-0.8925;-0.2914;1.0
0.23;-0.1613;-0.4241;0.4345;-0.1175;-1.5172;1.0
0.3048;-0.4972;-0.0536;-0.3573;-0.9898;3.0266;1.0
0.569;-1.153;0.2549;-0.1951;-1.0574;0.0028;1.0
0.0337;-0.7189;0.7652;-0.3465;-1.2186;0.199;1.0
0.3207;-0.8529;-0.0428;3.1736;-0.8613;-0.1443;1.0
0.5526;-0.8658;0.1608;-0.3135;-1.111;2.9285;1.0
0.5241;-0.6979;-0.0562;-1.6724;-0.777;-0.5856;1.0
0.1298;-1.2424;-0.1384;-1.9251;-1.1266;2.2257;1.0
0.432;-0.8474;0.045;-0.4584;-0.9289;-0.0789;1.0
-0.034;-0.8152;0.4046;2.5719;-1.0158;-0.7163;1.0
0.0171;-0.2815;0.3082;-0.4043;-0.311;-1.2557;1.0
-0.181;-0.1898;0.0149;0.7246;-0.803;0.0682;1.0
0.0759;-0.771;-0.3908;-0.1986;-0.7931;-0.0299;1.0
0.1856;-0.3184;0.1677;-0.1945;-0.6194;-0.2914;1.0
0.2011;-0.7953;0.7764;-0.2989;-1.1968;0.2807;1.0
0.1961;-0.9484;-0.2271;-0.2387;-0.8587;-0.1116;1.0
0.3343;-1.2726;0.0973;-0.4286;-1.2228;5.2821;1.0
0.0789;1.0547;0.2049;1.4558;0.2352;0.8037;1.0
0.0198;-0.1121;0.2315;0.7289;-0.6246;0.4768;1.0
-0.0836;-1.0396;-0.3401;3.2958;-0.8732;-0.2097;1.0
-0.8465;0.0973;-0.8116;0.3368;0.5457;-0.8144;1.0
0.228;-0.7484;-0.2602;4.7786;-0.8051;-0.1606;1.0
0.1375;-1.1761;-0.1046;-0.2518;-1.0064;-0.177;1.0
0.186;-0.9596;-0.3562;3.4064;-0.8826;-0.1443;1.0
0.0745;-0.8904;-0.2692;-0.2557;-0.8758;-0.2097;1.0
-0.573;-0.478;0.0489;-0.353;-0.9071;0.1009;1.0
0.3732;-1.0849;0.0034;-1.5205;-0.9903;-0.2097;1.0
0.3565;-1.1453;0.2118;-0.4861;-1.0111;-0.1279;1.0
0.0119;-1.0714;-0.4323;-0.3407;-0.8379;-0.0626;1.0
0.263;-1.0068;-0.2212;-0.3137;-1.0194;2.7324;1.0
0.0428;-0.9739;0.1453;1.4191;-1.0204;-0.4221;1.0
0.0046;-1.3866;-0.2273;-0.284;-0.9367;-0.177;1.0
0.2349;-0.7332;-0.1113;-0.2838;-0.802;-0.1279;1.0
1.0537;-1.3063;0.9515;3.4631;-0.2283;-0.0789;1.0
0.3892;-1.2784;0.0821;-0.1588;-1.0272;-0.1606;1.0
0.125;-0.86;-0.3202;-0.3274;-0.8332;-0.0462;1.0
0.3444;-1.2842;-0.079;-1.9724;-1.0652;-0.1443;1.0
0.2609;-0.8689;-0.1522;-0.479;-0.8582;-0.0299;1.0
0.1913;-1.205;-0.15;3.4871;-0.9325;-0.1933;1.0
0.1135;-0.9594;-0.2861;-0.3272;-0.8675;-0.1443;1.0
-0.3167;-0.6914;0.0827;0.089;-0.427;-1.7134;1.0
0.3862;-0.644;-0.0532;1.8969;-0.7833;-0.2097;1.0
0.1801;-0.595;0.7988;-0.586;-1.1078;-0.0952;1.0
0.042;-1.1428;-0.3267;-0.2548;-0.9996;2.3728;1.0
0.1246;-1.1374;-0.153;3.3757;-0.9539;-0.2914;1.0
0.532;-0.9999;0.2486;-0.4165;-1.0953;2.4055;1.0
0.2413;-0.7839;-0.1421;-0.371;-0.8504;-0.1933;1.0
-0.5409;-0.3952;-0.1429;-0.6278;-0.4472;-1.4519;1.0
0.2224;-1.2945;0.0402;-0.2392;-1.2009;2.7487;1.0
0.2222;-0.7142;-0.2968;-0.2688;-0.8108;-0.1279;1.0
0.1818;-0.9521;-0.2596;-0.4165;-0.8883;-0.2097;1.0
0.1515;-1.2232;-0.1111;-0.2263;-0.971;-0.0789;1.0
-1.1549;0.1567;-2.8096;-0.2591;1.3785;-1.7787;1.0
0.5538;-0.476;0.8417;-1.0247;-0.6943;0.199;1.0
0.5045;-1.0848;0.2641;1.4191;-1.2015;5.3802;1.0
0.3161;-1.1004;0.0688;-1.5124;-1.1026;2.5199;1.0
-0.2707;-0.805;0.7176;2.7396;-1.0095;-0.8144;1.0
0.0175;0.804;0.1705;2.0363;-0.079;-0.0626;1.0
0.2306;-0.8815;-0.1972;-0.4004;-0.8701;-0.1279;1.0
-0.7611;-0.7456;-0.0166;0.1223;-0.5809;0.1009;1.0
0.1553;-0.9262;-0.2883;2.2908;-0.84;-0.0789;1.0
0.2086;-1.1322;-0.0548;-0.5033;-0.9684;-0.3241;1.0
0.3423;-0.679;-0.0827;0.7152;-0.8124;-0.1933;1.0
0.3783;-0.8211;0.113;-0.255;-1.0631;2.5362;1.0
-0.4005;-0.2134;0.0782;-0.2989;-0.8259;0.2643;1.0
0.244;-0.346;0.6639;-0.3324;-0.8311;-1.3211;1.0
0.1476;-1.2532;-0.2181;2.1576;-1.1125;2.7651;1.0
0.1656;-0.6567;-0.3755;-0.2544;-0.764;-0.0299;1.0
0.4827;-0.9918;0.0473;-0.2215;-1.021;2.2747;1.0
0.2951;-0.9068;0.0135;-0.4112;-0.9273;-0.2423;1.0
0.3072;-0.9534;0.0481;-0.3132;-1.1058;3.0593;1.0
0.4324;-0.7356;0.1565;2.8358;-0.9143;-0.0299;1.0
-0.0651;-1.2695;0.3336;-0.3631;-1.1604;-1.0432;1.0
0.1834;-1.0272;-0.2547;-0.3278;-0.9107;-0.0462;1.0
-0.0966;-0.7337;-0.7493;3.4351;-0.6855;-0.1443;1.0
0.0456;-0.8044;-0.2505;-0.3272;-0.7895;0.0519;1.0
0.4158;-1.4347;0.1909;3.2956;-1.2051;1.8171;1.0
0.1751;-0.7666;-0.2958;-0.5192;-0.8207;0.0028;1.0
0.4609;-1.2232;0.105;-0.2548;-1.036;-0.1116;1.0
-0.001;-0.7589;-0.3212;-0.3985;-0.79;-0.1443;1.0
0.2026;-0.6795;0.7011;1.036;-0.9851;-1.3047;1.0
0.2078;0.1404;0.5895;-0.251;-0.545;-0.0626;1.0
0.2769;-0.6175;0.5852;-0.0236;-1.1073;0.1499;1.0
0.1004;-1.0773;-0.2499;-0.3946;-0.8888;-0.0462;1.0
0.6019;-1.2058;0.198;-0.2243;-1.0699;-0.1443;1.0
1.0632;0.0789;0.6121;1.63;-0.816;-0.1443;1.0
0.3706;-0.5854;-0.0802;-0.5007;-1.0907;5.2985;1.0
0.5225;-0.5843;0.8234;-1.0769;-1.19;0.2643;1.0
0.1931;-0.8881;-0.309;-0.3285;-0.8706;-0.177;1.0
0.0038;-0.401;0.4959;-0.312;-0.7208;-0.8961;1.0
0.2858;-0.6174;-0.1415;-0.2037;-0.8035;-0.2914;1.0
0.6837;-0.33;0.2684;-0.3137;-0.8134;-0.1443;1.0
0.1323;-0.8949;-0.2267;-0.3837;-0.8498;-0.0952;1.0
0.4512;-0.6687;0.08;1.3309;-0.8836;-0.0299;1.0
0.3817;-0.5829;1.0003;2.0541;-1.1021;-0.177;1.0
0.087;-1.1009;-0.3583;-0.3418;-0.9154;-0.1606;1.0
-0.0396;0.5457;0.3558;0.0112;0.0781;-1.223;1.0
0.0691;-0.9389;0.3477;-0.1404;-1.0881;0.0519;1.0
0.1672;-0.705;-0.31;-0.3871;-0.7635;-0.2097;1.0
0.5552;-0.9678;0.2415;-0.2267;-1.0215;-0.1606;1.0
0.2545;-1.1253;-0.0355;1.0356;-1.0142;-0.1116;1.0
0.2407;-0.6414;-0.1876;-0.2404;-0.8082;-0.2097;1.0
0.1535;-0.6496;0.6924;0.3338;-0.7853;0.4278;1.0
0.352;-0.4097;0.0646;-0.4017;-0.6657;-0.4058;1.0
-0.0885;-1.0488;-0.3656;8.1022;-0.8857;-0.1443;1.0
0.145;-0.8786;-0.2503;-0.2692;-0.8134;-0.2097;1.0
0.7311;-0.7869;0.4315;-0.3137;-1.228;8.0771;1.0
0.1355;-0.8292;-0.1982;-0.2701;-0.7994;-0.0952;1.0
0.1111;-1.0617;-0.3155;-0.2989;-0.8847;-0.1443;1.0
0.5799;-1.0664;0.3324;-1.6576;-1.1536;2.5199;1.0
-0.0172;-0.2337;0.273;-0.414;-0.5778;-1.0923;1.0
0.084;-1.1051;-0.3001;-0.473;-0.8873;-0.1606;1.0
-0.0875;0.4428;0.2854;-0.3783;-0.247;-0.9288;1.0
-0.1141;-0.2326;0.0373;-0.2885;-0.6298;0.3134;1.0
0.1801;-0.5954;-0.2488;-1.3481;-0.7598;-0.1116;1.0
0.6104;-0.6374;0.2356;-0.3407;-0.9045;-0.1279;1.0
0.7818;-0.84;0.3314;-0.3734;-1.0834;2.4382;1.0
0.2076;-0.8411;-0.1469;0.4766;-0.8576;-0.177;1.0
0.1741;-0.7897;0.754;-0.2078;-1.0418;-1.3865;1.0
0.1981;-1.0097;0.6912;-0.0987;-1.163;-0.0626;1.0
0.1509;-1.1716;-0.3399;2.7712;-0.9003;-0.2914;1.0
0.4918;-0.8076;0.1465;1.4045;-0.906;-0.0789;1.0
0.2371;-0.9571;-0.16;-0.2843;-0.894;-0.1116;1.0
-0.0927;-0.5685;0.9051;-0.2748;-0.7286;-1.4028;1.0
0.5692;0.0686;0.9592;1.4676;-0.7188;-0.7654;1.0
-0.1895;-1.3645;0.1972;-1.1115;-0.9414;-0.0135;1.0
0.1062;-1.2342;-0.0768;3.4317;-1.074;2.667;1.0
0.7386;0.905;1.0772;-0.2254;-0.3874;-0.7327;1.0
0.3831;-1.6635;0.6784;-0.1487;-0.4888;-0.177;1.0
0.4328;-0.6404;-0.0442;-0.5265;-0.8472;-0.0789;1.0
0.5435;-0.6847;-0.0949;-0.2845;-0.6735;-0.1279;1.0
0.2153;2.5219;-0.2871;-1.4065;1.133;-1.0105;1.0
0.2098;-0.8854;-0.2102;-0.3283;-0.8623;-0.2097;1.0
0.0814;-0.5543;0.5769;-1.5025;-1.0527;-0.4712;1.0
0.2957;-1.2677;0.0524;-0.2843;-1.165;1.8498;1.0
0.2866;-0.6148;-0.112;-0.618;-0.8181;-0.1443;1.0
0.3783;-1.0835;0.0477;-0.2989;-1.009;-0.2914;1.0
0.2044;-0.8837;-0.235;-0.2254;-0.8701;-0.0299;1.0
0.3789;-1.1664;0.1042;-0.4838;-0.9877;-0.2423;1.0
-0.304;-0.1606;-0.0174;-0.2828;-0.3193;-1.174;1.0
0.1177;-0.22;0.8415;-0.3506;-0.8379;-0.8144;1.0
0.3797;-1.0938;0.0058;-0.284;-1.0132;-0.1279;1.0
0.4732;-0.6576;-0.0127;-0.255;-0.8389;-0.0952;1.0
0.246;-0.847;-0.0808;-0.284;-0.8197;-0.2097;1.0
0.1462;-1.1749;-0.2915;-0.2838;-0.9372;-0.226;1.0
0.0874;-1.1103;-0.2108;-1.6543;-0.9487;-0.0462;1.0
0.103;-0.9883;-0.2869;-0.4584;-0.8992;-0.2914;1.0
0.3411;-0.1915;0.5696;-0.1653;-0.7021;-1.174;1.0
0.1133;0.0126;0.3147;-0.0145;-0.5232;0.7056;1.0
-0.2141;-0.4228;-0.1614;-0.2179;-0.8769;-0.0789;1.0
0.2561;-0.6348;-0.0839;-0.2847;-0.8113;-0.1279;1.0
0.7624;-0.3786;0.3324;-0.2989;-0.8654;-0.177;1.0
0.1925;-1.4392;0.0084;-0.0139;-1.1853;-1.4682;1.0
0.2323;-1.0433;-0.0127;-0.3871;-1.1624;5.6744;1.0
0.2304;-1.2451;0.6656;0.0709;-1.0439;-0.749;1.0
0.1278;-1.2538;0.7837;-0.2484;-0.8654;-0.2097;1.0
0.3494;-0.7805;-0.2035;-1.6133;-0.7796;-0.1443;1.0
0.188;-1.2964;-0.0318;-1.6462;-1.1193;2.5036;1.0
0.2187;0.4563;0.6405;-0.6502;-0.4113;-0.8798;1.0
0.1032;-1.2104;-0.1974;-0.3135;-0.9513;-0.2914;1.0
0.1751;-1.1698;1.1901;-0.3201;-0.6662;-0.5529;1.0
0.4783;-0.6188;0.1779;-0.2989;-0.868;-0.0952;1.0
-0.2032;-1.3581;-0.225;-0.3854;-1.0428;-0.1606;1.0
0.3983;-1.1546;0.1089;-0.2701;-1.0236;-0.1606;1.0
0.266;-1.0667;-0.0062;-0.3564;-1.1567;2.9939;1.0
0.6158;-1.0438;0.3318;3.5223;-0.9721;-0.275;1.0
0.0527;0.3595;0.44;0.0301;-0.4181;-0.749;1.0
-0.4143;2.0262;-0.9403;-0.2789;1.211;-1.0105;1.0
0.0365;-1.0752;-0.3957;-0.2989;-0.8217;-0.1606;1.0
0.08;-1.3863;-0.1667;-0.2697;-1.0615;-0.1443;1.0
-0.9772;1.2138;-1.7307;-0.3178;1.1658;-0.9779;1.0
0.2795;-1.1422;-0.0985;-0.4543;-1.1031;2.7814;1.0
0.1975;-1.0444;-0.2671;-0.3699;-0.9367;-0.0299;1.0
0.1094;-0.7995;-0.1297;-0.4696;-1.0792;3.8111;1.0
0.6207;-0.9188;0.3007;-0.4953;-1.0137;-0.3241;1.0
0.2696;-1.2385;-0.1268;-0.2233;-1.0865;2.5689;1.0
0.3215;-0.9878;0.0115;-0.3837;-0.995;-0.1116;1.0
0.1896;-1.0783;-0.0778;0.7038;-0.958;-0.275;1.0
0.2595;-0.5607;1.809;0.2449;-0.209;0.3297;1.0
0.4843;-0.7581;0.1465;4.2544;-0.879;-0.0626;1.0
0.3547;-0.862;0.1748;1.8795;-0.8509;-0.1279;1.0
0.4857;-0.184;1.0845;1.4485;-1.0043;-0.1606;1.0
0.0594;-0.6859;-0.3997;-1.6273;-0.4108;-1.4028;1.0
0.0028;-1.4032;-0.3727;-0.3278;-0.984;-0.275;1.0
0.2567;-1.0699;-0.1124;-1.6234;-1.0579;1.768;1.0
0.5942;-0.6797;0.0833;1.7483;-0.9112;-0.0299;1.0
0.125;-1.0381;-0.2655;-0.2989;-1.137;4.5957;1.0
0.2724;-0.6085;-0.1537;-1.5721;-0.7614;-0.2097;1.0
0.3199;-0.5998;-0.0705;1.0491;-0.8415;-0.0952;1.0
-0.4514;-0.6987;0.0351;-0.2849;-0.6657;-0.275;1.0
-0.2709;-0.2363;-0.0501;-0.4404;-0.8493;0.0845;1.0
0.123;-0.7103;0.4738;1.6717;-0.9362;-1.1576;1.0
0.2627;-0.9676;0.019;-0.4032;-1.0517;2.7487;1.0
0.1931;-1.1996;-0.0121;-0.1803;-1.1598;2.7324;1.0
-0.4894;-0.5929;0.0351;-0.243;-0.957;0.0028;1.0
0.2399;-0.8366;-0.1205;3.2391;-0.8478;-0.226;1.0
0.0194;-0.8066;-0.3402;-0.3132;-0.7364;-0.177;1.0
0.2232;-1.002;-0.1705;-0.1655;-1.1224;4.5466;1.0
0.1684;-1.3521;0.0499;2.4712;-0.8883;-0.0626;1.0
0.3252;-1.3331;0.0003;2.8581;-1.2223;2.667;1.0
0.2926;-0.9846;-0.042;-1.8633;-0.983;-0.3241;1.0
0.5891;-0.6459;0.4357;-0.2843;-1.0719;5.5437;1.0
0.2498;-0.8449;-0.3501;2.515;-0.8119;-0.1279;1.0
0.2171;-0.85;-0.1809;-0.2093;-0.7989;-0.0789;1.0
0.3785;-0.1493;0.487;-0.3253;-0.4764;0.297;1.0
-0.0735;-1.2342;-0.3776;-0.8095;-0.9398;-0.0299;1.0
0.468;-0.9299;0.1081;3.8052;-1.138;2.5036;1.0
0.4146;-0.8586;0.1337;-0.3953;-0.945;-0.0299;1.0
-0.512;-0.8229;-0.0926;-1.4535;-0.752;-1.2067;1.0
0.4785;-0.5912;0.1805;-0.3276;-0.88;-0.0789;1.0
0.0785;-0.8352;0.4231;0.0145;-0.6413;0.2643;1.0
0.3456;-0.6337;0.079;-0.3416;-0.9513;-0.3568;1.0
0.5344;0.0912;0.9513;-0.5772;-0.623;-1.3374;1.0
0.3312;-0.3702;0.7276;-1.509;-0.9071;-0.3404;1.0
0.2121;-1.218;-0.1227;-0.2692;-1.0522;2.5853;1.0
0.4132;-0.886;0.1571;-0.2989;-1.0147;-0.275;1.0
0.1478;-1.3061;-0.1166;-0.2701;-1.2301;5.5927;1.0
0.8317;-1.4547;0.5197;-0.3854;-0.5695;-0.275;1.0
0.3841;-0.9371;0.0253;3.6681;-0.9663;-0.3077;1.0
0.3403;-0.7874;0.044;-0.3278;-0.9388;-0.177;1.0
0.1983;-0.9128;-0.1656;6.1145;-1.0501;2.6997;1.0
0.1212;-1.4457;-0.113;-0.3549;-1.1281;2.8795;1.0
0.2945;-1.0144;-0.1244;-0.2697;-0.9705;0.0192;1.0
0.3605;-0.7224;-0.0926;-0.2175;-0.8675;-0.1933;1.0
0.0628;-1.0991;-0.3031;-1.6754;-0.9242;-0.1443;1.0
0.0424;-1.0862;-0.3318;-0.2989;-0.8654;-0.177;1.0
0.1402;-0.9741;-0.2771;-0.4522;-0.9331;-0.0789;1.0
0.2563;-0.6822;-0.2173;-1.9799;-0.7931;-0.0626;1.0
0.7166;-0.7435;0.5218;3.27;-1.0969;1.5556;1.0
0.6564;-0.6976;0.3432;-0.4017;-0.9601;-0.0135;1.0
-0.0602;-0.7934;0.5456;2.0973;-0.6012;-0.3731;1.0
0.4536;-0.7121;0.0526;-1.4203;-0.842;-0.0789;1.0
0.2965;-0.9152;0.0532;-0.4183;-1.1406;4.2688;1.0
0.1084;-1.0588;-0.1854;-0.3686;-0.9679;-0.1116;1.0
0.022;-1.1885;-0.3947;-1.5624;-0.9112;-0.0789;1.0
0.1527;-1.0115;-0.2806;-0.313;-0.8727;-0.0952;1.0
1.9776;-0.3807;2.5791;0.7463;1.2667;-0.0299;2.0
0.004;0.6157;-0.0036;-0.3686;-0.0639;-0.0135;2.0
-3.6601;-0.7718;2.1683;-1.0775;0.8682;-0.2914;2.0
0.4591;-0.8994;1.6957;0.596;0.5785;-0.3077;2.0
2.3136;0.0696;-3.3634;-0.6948;2.0776;-0.4548;2.0
1.206;-0.6632;0.4504;-0.371;1.7541;-0.8144;2.0
-3.8188;-0.3418;0.959;0.5064;0.9936;1.0979;2.0
-3.2573;-0.746;2.1862;0.8346;0.7881;-0.6346;2.0
0.9147;2.1126;0.3983;-0.1455;0.811;0.2153;2.0
-0.7649;0.5957;3.3321;-0.2147;2.2336;-0.5039;2.0
-3.4074;-0.4465;0.8659;0.3198;1.0846;-0.3568;2.0
0.1305;-0.0784;0.9029;-0.8581;0.1764;-0.3894;2.0
0.5782;1.1888;-0.1779;-0.1019;0.5733;-0.2097;2.0
0.0066;0.3545;-3.7034;1.0837;2.0885;0.0028;2.0
0.3914;-0.0146;1.0792;-0.2989;0.1161;-0.5366;2.0
1.249;-0.3697;0.6454;0.6821;2.0058;-0.7817;2.0
1.4001;-0.2771;0.8799;-0.2424;1.726;-0.749;2.0
0.186;0.7582;-2.5008;-0.2235;1.2173;0.1663;2.0
2.9568;0.4932;3.2717;0.0722;2.3954;-0.8308;2.0
-3.6421;-0.2636;0.9879;1.0605;1.4024;-0.5856;2.0
0.6501;0.0683;-1.3174;0.0591;0.0505;-0.4712;2.0
1.1012;-0.2921;0.3642;-0.3242;1.2818;0.3134;2.0
0.7303;-1.7006;0.2997;-0.4863;-0.6699;-0.4875;2.0
0.4455;-0.2121;-2.4258;0.6254;1.2141;-0.9615;2.0
-4.0687;-0.4181;0.8366;0.5397;1.599;-0.5692;2.0
-3.5536;-0.5893;0.8899;1.6759;1.0388;-0.4548;2.0
-3.6771;-0.7866;0.823;1.0959;1.0102;-0.4875;2.0
2.4187;-0.3252;2.6562;0.2977;0.81;-0.2097;2.0
1.6162;-0.1987;1.089;1.1228;1.6854;-0.7327;2.0
0.1852;1.9677;-0.7115;-0.2553;1.7036;-0.0952;2.0
-0.6181;1.9603;-2.8659;-0.3184;3.4784;-1.0105;2.0
-3.4108;-0.1064;1.1106;-0.3558;1.5777;-0.7;2.0
2.1151;-0.5777;0.8224;2.0047;0.8313;-0.0135;2.0
1.0501;-1.4589;0.4996;-0.3143;-0.312;-1.1413;2.0
-3.264;-0.6563;0.7268;-1.2686;0.6576;-0.5856;2.0
0.0971;0.5765;-1.6753;-0.3343;0.901;-1.648;2.0
-3.7132;-0.5251;2.4868;0.9709;0.9738;-0.2097;2.0
0.2783;0.0304;0.79;0.9018;0.2087;-0.3241;2.0
0.0987;1.7715;-0.2053;1.2759;0.9905;0.6076;2.0
-3.8166;-0.5088;0.7803;0.8324;1.2438;-0.0789;2.0
-0.2172;2.1035;-0.5075;1.2452;1.4425;0.2807;2.0
0.3468;-0.4523;-0.7192;-0.1556;-0.3422;-0.8471;2.0
1.7822;-0.8644;0.8222;2.1999;0.6581;0.3624;2.0
0.673;-0.0585;-3.6571;0.9954;1.7775;-0.8308;2.0
0.9727;0.742;-0.6111;0.1306;0.2659;-0.7163;2.0
-3.3739;-0.8358;0.7121;0.5019;0.7912;-0.749;2.0
0.5312;-0.4375;0.2651;0.5498;-0.4441;0.9508;2.0
-2.9101;-0.9296;0.7748;-1.1645;0.4755;-0.3731;2.0
-3.386;-0.2594;0.9517;0.2041;1.5756;-0.8471;2.0
0.1024;0.467;-1.9324;-0.2604;0.7554;-0.8798;2.0
0.8632;-0.7287;0.558;0.6134;1.3873;-0.7981;2.0
0.5467;0.4227;-1.4622;-0.5396;0.8017;-1.2721;2.0
1.7772;-0.872;0.6889;0.4358;0.6701;0.3134;2.0
1.202;-0.4212;0.8801;-0.2598;1.5283;-0.8798;2.0
2.0194;-0.6726;2.2352;0.0422;1.184;0.1663;2.0
0.2737;-0.2502;2.459;-0.2656;0.0261;-0.4385;2.0
-3.4539;-0.6934;2.2702;0.867;0.8838;-0.275;2.0
0.5504;0.4373;-1.6892;1.6652;0.9567;-0.2587;2.0
-3.5732;-0.4375;0.7595;0.8292;1.4971;-0.8471;2.0
1.8016;-0.5972;1.2041;1.2439;1.005;-0.5692;2.0
-0.0428;0.979;-0.3798;-0.2357;0.2721;-0.3404;2.0
-3.728;-0.7308;0.6047;0.7212;1.1642;-0.3568;2.0
-0.1214;-0.0162;-0.6411;-0.3704;-0.0764;0.4932;2.0
0.8939;-0.7021;0.4243;0.6943;1.6693;-0.749;2.0
0.4342;-1.4358;0.5993;-0.6223;-0.5768;-0.5856;2.0
1.2516;-1.0557;1.8295;-0.4095;0.0974;0.5095;2.0
-3.0263;-0.8445;1.9946;-0.2452;0.6779;-0.9288;2.0
0.1498;0.0841;0.9299;0.0166;0.2779;-0.4385;2.0
-0.4312;1.9222;5.3591;-0.2989;3.2812;-0.8634;2.0
-0.1325;1.6944;-0.6832;1.3974;0.9957;0.2153;2.0
0.4049;0.9008;-2.9166;-0.2989;1.5606;0.4605;2.0
1.0557;1.2909;1.2043;-0.3946;1.8836;-0.5856;2.0
0.2565;2.534;6.0065;-0.4118;3.3202;-0.9452;2.0
-0.0855;-0.3252;-0.4117;-0.3564;-0.3063;0.2316;2.0
0.1198;0.0018;1.0581;0.8887;0.3476;-0.5692;2.0
-3.0901;-0.7564;0.6771;0.4562;0.6108;-0.1933;2.0
0.8172;2.4925;-0.6432;-0.2409;3.4643;-0.8471;2.0
1.4181;-0.3325;2.1881;0.3172;1.1725;-0.1116;2.0
2.3526;-0.4139;0.923;1.1329;1.5127;-0.7981;2.0
-3.3846;-0.4068;0.3288;-0.1915;1.4243;0.1336;2.0
1.6877;-0.2683;2.5261;-0.0019;1.5699;-0.5856;2.0
0.4288;0.1669;1.3223;-0.7509;0.3189;-0.3568;2.0
-3.0184;-0.8615;1.9997;0.6862;0.5119;0.1172;2.0
2.9814;0.6431;-2.7475;-0.9377;1.7327;0.0682;2.0
-0.0073;-0.1531;1.2826;0.2341;0.5613;-0.3568;2.0
-0.2699;0.2577;-0.2598;-0.202;-0.0259;-0.3077;2.0
-0.1295;0.2796;0.1815;-1.9683;-0.1071;0.248;2.0
0.0355;-0.0032;0.933;-0.4567;0.2768;-0.6346;2.0
0.2539;-0.1868;1.1122;1.45;0.0698;-0.3404;2.0
0.0585;0.3055;-0.1384;-0.2591;-0.1814;0.0682;2.0
-3.7593;-0.1739;0.9619;0.1485;1.6084;-0.7981;2.0
-3.6853;-0.6327;0.7282;1.3373;1.0732;-0.4875;2.0
0.9254;-0.5364;0.4378;0.6177;1.6245;-0.8471;2.0
0.0246;-0.1516;0.7746;0.7386;0.1801;-0.4875;2.0
2.0571;-0.5816;0.8514;-0.117;1.0544;-0.4548;2.0
-0.2887;2.426;-2.5366;-0.2989;3.4518;-0.9779;2.0
-2.8459;-0.7356;-3.4984;-0.8503;1.391;0.9672;2.0
0.8667;-0.5532;0.5124;-0.2989;1.6209;-0.7981;2.0
1.7703;-0.7534;0.4604;-0.8761;0.9213;-0.0789;2.0
0.3433;0.5826;-1.741;0.6297;0.4511;-0.8144;2.0
1.4055;-0.6551;2.1429;0.9157;1.094;-0.0299;2.0
-3.9612;-0.7332;2.218;-0.4883;1.2745;-0.3731;2.0
0.3326;0.9871;-3.2096;-0.3607;1.8825;-0.1933;2.0
-1.7443;-1.1727;1.6849;-0.6616;0.4141;-1.5499;2.0
1.5706;-0.4094;0.861;0.2526;1.1944;0.2807;2.0
2.9798;0.1177;0.56;1.1788;1.8955;0.3134;2.0
0.0699;1.4322;-0.7182;-0.2922;1.8009;-0.9615;2.0
0.0416;0.4621;-3.4643;-0.2619;1.7452;0.3461;2.0
0.1537;1.1689;-0.1886;-0.2087;0.2955;-0.1606;2.0
1.9283;-0.7006;0.6574;0.584;0.8043;-0.2914;2.0
1.1991;-1.3174;0.7868;-0.2853;-0.0847;0.297;2.0
0.3423;0.6801;-3.3817;-0.4099;1.8799;0.4278;2.0
1.9747;-0.5403;2.4063;0.7852;1.1481;-0.3894;2.0
1.0709;-1.3931;1.4175;0.43;-0.157;0.7383;2.0
1.776;-0.7784;0.8295;0.849;0.8058;-0.4221;2.0
1.0719;-0.5382;0.6117;-0.8632;1.1944;-0.651;2.0
0.3585;1.2735;-0.2769;0.6284;1.7733;-1.3047;2.0
1.9236;-0.3925;1.9952;-0.2327;0.8032;-0.7;2.0
0.5855;1.9535;0.2265;1.423;0.8615;1.2287;2.0
1.142;-0.4769;0.7296;0.8576;1.637;-0.8144;2.0
0.1305;2.035;0.0725;-0.3107;0.8974;0.673;2.0
0.121;-0.6077;-3.5478;-0.4462;1.52;-0.7817;2.0
0.4241;1.0365;-1.5118;0.6316;0.6737;-0.8308;2.0
2.2306;-0.3542;0.6294;0.1588;2.141;-0.7981;2.0
1.0341;-1.3974;0.536;-0.1818;-0.0946;0.5259;2.0
0.3835;-0.0358;1.3965;0.8326;0.1957;-0.3894;2.0
1.5881;-0.5619;2.3965;0.0651;1.108;-0.5856;2.0
-4.1533;-0.714;2.1596;-1.2888;1.9507;-1.0269;2.0
0.0392;-0.1263;0.7052;0.2041;-0.0166;-0.1116;2.0
0.1676;-0.6022;-3.5509;1.1131;1.4357;-0.7817;2.0
1.1737;-0.8202;0.7711;0.1362;0.6924;-0.4221;2.0
0.84;-0.9796;1.8911;0.5487;0.6399;-0.4875;2.0
0.3785;0.2061;0.9586;-0.12;0.4048;-0.5202;2.0
0.5265;0.6606;-1.4833;-0.6195;0.5587;-0.7817;2.0
1.7051;-0.8579;1.8279;0.8241;0.6581;-0.0626;2.0
0.2803;0.5002;-1.1327;-0.3508;0.4303;-0.8308;2.0
-0.7704;1.595;-1.7018;-0.3772;1.7785;-0.5366;2.0
1.2553;-1.2758;0.4791;0.2664;-0.1476;0.7874;2.0
2.0408;-0.3105;1.1535;0.1162;1.5007;-0.8144;2.0
0.0549;0.0975;0.872;-1.5081;0.437;-0.3077;2.0
-0.2232;2.2995;-1.3221;-0.1382;3.47;-0.9288;2.0
0.0438;1.1738;-0.2106;-0.3425;0.3189;-0.0626;2.0
-0.2054;-0.4772;-0.5269;1.7861;-0.7999;-0.4875;2.0
1.2458;-1.1144;1.6755;-1.4684;0.1504;1.2287;2.0
3.0139;0.1243;1.6524;0.5185;0.6342;-0.5529;2.0
-0.158;1.9228;-0.5602;-0.3109;1.0238;0.1499;2.0
-3.8441;-0.5562;2.4258;0.7448;1.2443;-0.749;2.0
0.4445;-0.048;1.4699;1.5067;0.0204;0.0519;2.0
0.1002;-0.4977;0.6946;-1.2347;-0.0738;-0.5202;2.0
0.5906;2.6004;-1.4998;-0.2488;3.0284;-0.9779;2.0
0.2581;0.0301;1.219;0.0561;0.5182;-0.7;2.0
-3.6601;-0.7936;0.9208;0.6827;0.8708;-0.6673;2.0
1.3906;-0.8379;2.1087;0.619;0.6669;-0.4221;2.0
1.6237;-0.674;1.0491;-0.3783;1.03;-0.8308;2.0
0.222;-0.3688;-0.5118;-1.0189;0.1244;0.3624;2.0
-1.1402;-0.1048;0.7534;0.0188;0.4032;-0.3241;2.0
2.1018;-0.4775;1.2826;-1.201;1.4362;-0.6183;2.0
0.5657;0.2227;1.3806;0.6989;0.4027;-0.6183;2.0
0.4859;0.2529;1.369;0.2968;0.3829;-0.5856;2.0
-0.444;-1.3119;0.5866;-0.0304;-0.2693;-0.3731;2.0
2.0816;-0.6077;0.9017;0.7364;1.0003;-0.5039;2.0
-0.1067;1.4951;-0.2067;-1.1557;0.8292;0.3624;2.0
-3.34;-0.3012;1.0585;0.4227;1.0628;-0.4548;2.0
-0.3519;1.9709;-0.6357;0.0733;1.366;0.199;2.0
-1.0653;-1.3085;1.5139;-0.4133;-0.3666;-0.9615;2.0
-0.2925;1.842;-0.4327;1.9463;1.1392;1.8988;2.0
-3.4262;-0.8328;2.1016;0.7749;0.7892;-0.5692;2.0
0.6096;0.7645;-1.9009;-0.9124;0.7044;-0.8471;2.0
0.27;0.3764;-3.3422;-0.2989;1.7442;0.0682;2.0
-0.2246;1.8836;-0.6226;0.2509;1.0971;0.5259;2.0
2.328;-0.3825;2.6369;1.1393;1.2068;-0.1279;2.0
-0.1871;1.5461;-0.237;1.2546;0.7912;0.9181;2.0
0.2783;2.2411;-0.237;1.3068;1.3634;0.1663;2.0
-0.6556;-0.7637;-1.9914;0.3415;0.0911;-0.8471;2.0
-1.0301;0.304;-1.6605;-1.2053;1.2178;0.3624;2.0
0.1373;0.1514;0.8632;-0.9976;0.3403;-0.3894;2.0
0.9119;-0.6358;2.3394;-0.3875;1.4778;-0.8308;2.0
-0.0471;-1.4384;-1.7392;0.1783;-0.2335;-0.8634;2.0
0.1133;0.285;-2.2682;0.4004;0.6732;-0.8144;2.0
0.5994;0.3737;1.3798;-1.2946;0.2591;-0.2097;2.0
2.7172;-0.0798;1.2356;-1.2826;1.5725;-0.6837;2.0
0.5382;0.0372;-0.8807;0.0916;-0.1716;-0.2587;2.0
0.1121;-0.079;0.9977;1.3738;0.4292;-0.6346;2.0
-3.9825;-0.4256;0.7475;0.8853;1.3894;-0.2423;2.0
0.0654;-0.0177;-2.4022;0.6495;0.4693;-0.9125;2.0
1.0769;-1.3455;0.8492;1.1999;0.0584;-0.4058;2.0
2.0735;-0.6372;0.5563;-1.1022;1.5382;-0.7981;2.0
0.0218;-0.5133;-3.5299;-0.2626;1.4654;-0.8144;2.0
0.8358;-0.6461;0.4089;0.5915;1.6011;-0.7981;2.0
0.9969;-1.5084;0.4229;-0.8108;-0.5643;-0.5529;2.0
0.2383;1.1126;-0.1935;1.9656;0.6695;0.3134;2.0
1.8352;-0.6498;1.9292;0.083;0.8396;0.3134;2.0
-0.5583;-0.201;-1.6279;0.5565;0.4209;-0.7981;2.0
0.773;-1.2396;0.7172;0.0739;-0.2537;-1.4028;2.0
0.9638;2.3539;-2.3705;-0.2185;3.4284;-1.0105;2.0
0.2149;0.0526;1.066;1.0201;0.3507;-0.6019;2.0
1.2658;-0.0413;-1.797;-1.3146;0.4219;-0.7654;2.0
-1.7272;-1.2156;1.6021;0.1162;0.3288;-1.6316;2.0
0.451;0.8183;-1.3865;-1.2384;0.539;-0.9779;2.0
0.0842;0.0559;0.887;-0.0491;0.3033;-0.2914;2.0
0.5799;-0.2552;-3.3998;-1.3657;1.584;-0.7981;2.0
0.141;0.3521;-3.3123;-0.2233;1.5455;0.1826;2.0
1.6734;-0.1598;1.1114;1.0248;1.6656;-0.8308;2.0
1.4726;-0.1281;0.9755;-0.2063;1.6854;-0.8471;2.0
-2.7807;-0.6608;2.1386;1.3605;0.3559;0.7383;2.0
-0.1905;1.8414;-0.39;1.3895;1.2745;0.6076;2.0
-0.0134;1.5998;-0.2442;1.5338;1.0981;1.1469;2.0
-0.3799;0.6593;-1.1439;-0.315;1.9257;-0.4385;2.0
-0.1584;1.3178;-0.7758;1.8319;0.9567;0.3787;2.0
0.3886;0.7002;-1.957;0.5915;0.6087;-0.8144;2.0
-3.7267;-0.5962;0.6948;-0.0098;1.2188;-0.5202;2.0
0.1793;-0.5177;-3.7173;-0.2705;1.6386;-0.7981;2.0
1.5013;-1.0728;0.4463;-0.671;0.5031;-0.5856;2.0
0.6701;0.9939;-1.5785;0.1933;0.7824;-0.8471;2.0
0.2745;0.4034;0.2366;-0.0135;-0.2137;-0.0299;2.0
0.209;1.006;-3.3239;-0.1812;1.9132;-0.3404;2.0
0.2381;-1.636;0.4136;0.2206;-0.5976;-1.125;2.0
1.0808;-0.4551;0.5206;-0.3362;2.0791;-0.8308;2.0
1.0666;-0.7005;0.7264;0.748;1.4133;-0.8308;2.0
0.1444;0.1172;1.173;1.1704;0.0386;0.771;2.0
-0.5205;2.2532;-1.27;-0.2604;3.3759;-1.0105;2.0
0.0747;0.9877;-1.8498;-1.0657;0.8703;-0.7981;2.0
-2.5732;-0.886;2.0091;-0.9085;0.4433;-0.3404;2.0
0.2298;0.2056;1.1406;0.3327;0.4245;-0.1933;2.0
-0.4803;1.475;-0.948;0.3681;1.2079;0.6239;2.0
-2.0556;0.8456;-0.4968;-0.3377;1.0399;-0.0626;2.0
0.0933;-0.0401;1.2106;-0.0652;0.218;0.0355;2.0
-3.8487;-0.7013;0.5911;1.0377;1.2167;-0.7163;2.0
-3.8669;-0.6927;0.8301;0.3836;1.1397;-0.4058;2.0
-0.2182;0.9692;-0.2338;-1.3017;0.6581;-0.4385;2.0
1.4373;-0.4588;2.4278;0.6063;0.8339;-0.3568;2.0
0.4714;1.5414;-1.4144;-1.3095;2.1072;-0.8798;2.0
0.2527;0.0071;-1.9446;0.6943;0.2685;-0.7327;2.0
-0.3535;2.552;-2.8035;1.8288;3.6443;-0.9615;2.0
0.796;-1.3797;1.2891;0.4169;1.2095;-0.9288;2.0
1.3522;-1.2187;0.682;-0.3766;-0.4452;-0.6019;2.0
-0.6134;-0.8397;0.4124;-0.2331;-0.4779;1.6373;2.0
0.0711;-0.2074;0.8539;-0.5802;0.1619;-0.2587;2.0
1.2884;-1.2761;0.788;-0.47;-0.402;-0.8471;2.0
-4.3864;-0.9409;0.1258;0.2653;1.61;-0.8961;2.0
1.6495;-0.7684;2.1527;0.8878;0.7512;-0.177;2.0
1.0097;-0.6782;0.5722;0.3061;1.4139;-0.8308;2.0
3.6611;0.9359;-2.3817;-0.2722;1.8061;0.1172;2.0
0.4783;0.9606;-0.0485;-0.9663;0.4225;-0.4058;2.0
1.4908;-1.0256;1.1718;3.6787;-0.3656;-0.1443;2.0
0.2609;0.8527;0.0253;-0.2568;-0.0478;0.2643;2.0
1.8303;-0.8382;0.2852;0.7609;1.5028;-0.8471;2.0
-0.1404;2.0585;-0.1024;1.4934;1.2079;0.4768;2.0
0.3458;-1.5189;-0.2389;-0.5288;-1.073;-0.8308;2.0
1.8263;-0.7882;2.1409;0.8241;0.7054;0.0519;2.0
0.365;0.0238;1.1673;0.3308;0.1946;0.1336;2.0
1.4201;-1.1154;0.6564;-0.0208;0.1728;-0.5039;2.0
-0.1638;1.9559;-1.0929;0.43;1.7254;0.5585;2.0
0.1559;0.1903;1.1289;-1.5727;0.4693;-0.5692;2.0
0.552;-0.8958;0.3231;-0.2868;-0.3937;0.4278;2.0
0.3498;-0.121;0.9155;0.1111;0.8469;-0.6837;2.0
0.2924;2.3004;-0.0084;2.0964;1.1049;-1.0432;2.0
-0.1622;1.5218;-0.117;-0.2273;0.7928;0.4932;2.0
0.3765;-1.1069;0.0888;-0.2989;-0.5403;0.8201;2.0
0.5958;0.6273;-1.5972;0.5915;0.7522;-0.2587;2.0
0.7433;2.5261;-1.5315;-0.1183;2.9957;-1.0105;2.0
-3.2153;-0.6332;2.2279;0.4497;0.8037;-0.3404;2.0
0.3595;0.9474;-1.6282;-1.3384;0.7663;-0.8308;2.0
0.12;-0.1014;0.9263;-1.2351;0.1124;-0.5039;2.0
0.5481;0.3761;1.4699;-0.2194;0.5723;-0.4875;2.0
-3.4874;-0.997;0.3938;0.4233;0.6909;-0.5529;2.0
0.0369;0.767;-1.5354;1.1737;0.6992;-0.8144;2.0
1.9923;-0.5669;2.3697;1.0227;1.0238;-0.4058;2.0
-0.1152;-0.5666;-0.5334;-0.9513;-0.0478;0.1172;2.0
0.1446;0.6523;-1.7036;0.7212;0.7106;-0.7654;2.0
0.5704;0.8521;-1.656;0.7749;0.6753;-0.7163;2.0
-0.1376;1.2454;-0.439;1.1653;0.7954;0.1172;2.0
0.5574;-0.9471;0.3947;-0.3938;-0.481;1.4412;2.0
0.0462;0.5384;-1.159;-0.3324;0.1863;-0.6183;2.0
0.1006;2.1563;-0.6751;1.9648;1.6042;0.0519;2.0
-3.778;-0.4031;0.7776;-0.1064;1.2531;-0.3568;2.0
2.2072;-0.3378;2.4785;-0.28;1.1751;-0.7817;2.0
2.02;-0.6204;0.8157;1.01;0.965;-0.275;2.0
-3.7532;-0.5887;0.7856;1.2222;1.0118;-0.177;2.0
-3.7322;-0.5856;0.7986;1.9931;1.25;-0.5856;2.0
2.3821;-0.3626;1.1905;-0.1694;1.4955;-0.5039;2.0
-0.5114;0.621;-3.4226;0.5356;2.0989;0.1663;2.0
-0.1335;1.7181;-0.3121;2.1974;0.9556;0.248;2.0
0.7901;0.6888;3.6266;-0.313;2.012;-0.4712;2.0
-3.6116;0.0176;0.3705;-0.3225;1.6417;0.5585;2.0
0.0697;0.1241;0.8224;-0.6654;0.2295;-0.2097;2.0
-3.2369;-0.5383;0.8299;-0.3296;0.5005;0.6239;2.0
-0.0184;-0.1395;0.7359;1.3732;0.1421;-0.4058;2.0
-0.2527;2.0563;-0.5757;-0.2387;1.7946;0.3134;2.0
2.0295;-0.6071;0.7337;1.3021;0.8245;0.1663;2.0
-0.0832;1.9154;-0.3162;1.9006;1.3374;0.8037;2.0
1.1224;-0.9615;0.2391;-0.2346;1.0929;-0.0789;2.0
1.4835;-0.201;0.8891;-0.2615;1.9886;-0.8144;2.0
-0.0354;0.1588;-2.9328;-0.2432;1.2719;-1.3538;2.0
2.2056;-0.5303;0.8096;-1.0515;1.3005;-0.3894;2.0
-0.5211;-0.7493;-0.4917;-0.3493;-0.1289;-0.0462;2.0
-0.1376;1.773;-0.932;0.089;1.0144;0.5585;2.0
1.8509;-0.7803;0.6658;1.2812;0.7746;-0.2914;2.0
-3.1622;-0.7345;0.679;0.9656;0.8771;-0.5366;2.0
0.5502;-0.1272;-2.7061;-0.5909;0.6456;-0.8961;2.0
-1.1529;0.167;-1.4115;-0.2989;0.3569;-0.7981;2.0
0.2922;-1.1175;-1.2972;-0.3616;-0.2257;-0.9779;2.0
0.6574;0.2679;1.4858;0.2651;0.2217;-0.4221;2.0
-3.3755;-0.8573;2.0715;0.7549;0.7205;-0.226;2.0
-0.0418;0.1619;1.2442;1.2351;0.6555;-0.2914;2.0
-3.1959;-0.7118;2.1695;2.0893;0.655;-0.4221;2.0
-0.5183;-0.0645;-3.3617;1.1719;1.8087;-0.8144;2.0
-3.9328;-0.6061;0.6403;0.5674;1.2656;-0.4712;2.0
-3.9881;-0.5591;2.402;1.4374;1.2968;-0.177;2.0
0.3894;0.5617;-3.2525;-0.3122;1.7613;0.7056;2.0
1.1913;-0.6161;0.8848;1.2437;1.3967;-0.7327;2.0
0.1422;0.3256;-1.3088;1.9382;0.3288;-0.7981;2.0
1.1054;-1.3723;1.4353;-0.2989;-0.5544;-1.125;2.0
0.5288;0.313;1.2065;0.3454;0.3517;-0.3077;2.0
1.4056;-1.1291;0.9629;-0.3382;-0.1768;0.4441;2.0
0.1155;-0.1331;1.0695;0.5477;0.19;-0.3077;2.0
-0.3507;-0.2958;2.1384;0.6909;0.8896;-0.0299;2.0
-1.2135;1.6111;4.9943;-0.2608;3.4409;-0.9615;2.0
0.0359;1.9136;-0.3932;2.053;1.0903;0.6566;2.0
0.9036;-1.5249;0.4846;-0.5039;-0.1648;-1.1903;2.0
-0.1941;-1.2209;-0.7398;0.838;-0.8966;0.2153;2.0
0.3486;-1.4;0.5201;-0.5329;-0.4753;-1.2557;2.0
-3.2994;-0.9317;1.8238;2.711;0.7413;-0.3731;2.0
-0.0441;0.5681;3.4968;-0.7674;2.0412;-0.3568;2.0
0.2355;-0.3349;-3.7105;-0.1887;1.7551;-0.8471;2.0
1.0731;-0.4325;0.6792;-0.3178;1.4935;-0.7981;2.0
0.7063;-0.9278;0.4353;0.5449;1.2251;-0.7981;2.0
-3.2687;0.0572;1.2277;-0.778;1.599;-0.6183;2.0
0.2993;0.6455;-3.0453;-0.5173;1.7239;0.4114;2.0
1.7037;-0.9405;1.9035;-0.6974;-0.1242;0.6403;2.0
2.3726;-0.3905;0.8415;-0.9785;1.3832;-0.6673;2.0
0.2831;1.201;-0.0544;1.3077;0.5156;0.1336;2.0
0.0484;-0.0945;0.6593;1.6128;0.0916;-0.3731;2.0
0.1789;-0.0316;0.894;-0.2027;0.3299;-0.5202;2.0
0.6368;0.5478;-0.7312;-0.1868;0.4719;0.2807;2.0
2.984;0.2169;1.7628;-1.7054;2.0583;-0.749;2.0
-3.3179;-0.7479;0.6452;1.0409;0.7106;-0.1443;2.0
2.2217;-0.4988;0.8055;0.5807;1.4997;-0.7817;2.0
0.0735;2.7616;-0.4069;-0.2581;2.7169;-0.9288;2.0
-0.2018;0.6018;-1.8525;0.5704;0.6737;-0.8471;2.0
1.1648;-0.5032;0.7477;0.7085;1.533;-0.8144;2.0
0.0396;0.0638;-0.3943;-0.3274;-0.2475;0.199;2.0
0.3858;-0.592;1.8966;0.8479;1.0643;-0.6183;2.0
0.0309;1.0195;-0.2604;-0.3586;0.2342;-0.2097;2.0
0.7073;-0.8987;1.7888;0.4437;0.9291;-0.8144;2.0
-3.8857;-0.4197;0.6977;0.226;1.6589;-0.8144;2.0
0.8418;-1.0247;1.4126;-0.3549;0.6472;-0.2097;2.0
1.1234;0.4295;-0.442;0.3761;-0.0061;-0.7327;2.0
0.8301;2.5777;-1.7125;-0.1584;2.979;-0.9125;2.0
0.0886;0.8798;-0.2468;-0.2497;0.1176;-0.3894;2.0
-0.7457;2.3555;-2.824;-0.318;3.7598;-0.9452;2.0
2.0895;-0.5977;0.6491;0.7605;1.8123;-0.7654;2.0
0.0495;0.2317;-2.5576;-0.2797;0.6581;-0.8308;2.0
-0.0279;1.2631;-0.2946;-0.4356;0.347;-0.0952;2.0
0.7354;2.5587;-1.8818;-0.1183;3.0872;-0.9125;2.0
-0.6199;2.2236;-2.8423;-0.3463;3.5153;-0.9615;2.0
-3.0027;-0.8195;2.0851;-0.2989;0.657;-0.4385;2.0
0.1327;0.1115;-0.197;1.5832;-0.0998;0.1499;2.0
0.37;-0.5548;0.5262;-0.4011;-0.5263;1.3267;2.0
0.6546;-1.1504;0.7713;-0.6175;-0.2314;-0.5692;2.0
0.2112;-0.2576;1.0853;-0.4363;-0.0249;0.1172;2.0
-0.71;-0.7306;-3.2129;0.5855;1.2511;-0.8308;2.0
0.0959;0.0902;0.9393;0.4562;0.2794;-0.3894;2.0
0.0747;0.3781;-0.1831;-0.2572;-0.209;0.1336;2.0
0.02;1.4009;-0.2739;0.6772;0.9468;1.2123;2.0
0.3242;-0.0125;-1.3239;0.2889;0.4755;-1.5009;2.0
0.2609;0.3176;1.1825;0.7603;0.3902;-0.2423;2.0
-0.1768;1.6274;-0.3605;1.5471;1.069;0.3787;2.0
0.5688;-0.6687;0.2926;-0.2235;1.5678;-0.8634;2.0
-0.0279;1.4253;-0.514;0.482;1.0258;0.5912;2.0
0.9961;0.324;-1.5289;0.2664;0.4651;-0.8144;2.0
-3.4474;-0.7321;0.6503;0.3555;0.8261;-0.2914;2.0
-0.2242;1.5381;-0.8167;-0.2248;0.9608;0.4278;2.0
0.1171;1.9357;-0.1262;-0.0987;1.1247;0.3134;2.0
1.5986;-0.5236;0.9639;-0.353;1.573;-0.8144;2.0
0.0624;0.4037;-2.1555;0.1162;0.7356;-0.8798;2.0
1.1444;-0.5346;0.7817;0.6675;1.6401;-0.749;2.0
0.2559;0.3979;-1.4852;-0.281;0.4037;-0.8144;2.0
0.0996;2.2323;-0.4532;-0.0354;1.1018;0.3951;2.0
0.4538;-0.4373;-0.3924;0.7487;-0.0139;-0.4712;2.0
0.1214;-0.1779;0.8531;-0.0424;0.191;0.0192;2.0
1.551;-0.2134;0.4957;-0.2248;1.8508;-0.8308;2.0
0.2157;-0.1493;0.7506;-0.6641;0.0708;-0.1279;2.0
1.6871;-0.6153;1.0135;-1.0307;1.1403;-0.275;2.0
-0.4066;1.4054;-0.6281;2.0633;0.9374;0.673;2.0
0.202;-0.0298;0.8045;0.6153;0.2295;-0.4548;2.0
1.9588;-0.6359;0.7384;0.8629;1.1267;-0.3731;2.0
0.8515;-0.2381;-2.0538;-1.1694;0.708;-1.4519;2.0
0.3433;0.8901;-1.3113;-0.2797;1.0409;-0.8144;2.0
-0.3446;1.843;-0.4248;0.4856;1.1226;0.4605;2.0
1.8366;-0.5759;2.3359;-1.486;1.2552;-0.5856;2.0
0.1105;0.2235;1.525;1.0936;0.7502;-0.6183;2.0
-0.1214;-0.13;-1.8797;2.0556;0.6394;-1.4192;2.0
0.1571;0.5789;-1.9759;0.6177;0.655;-0.8308;2.0
-4.6221;-0.7726;0.3206;-1.2611;1.6812;-0.7;2.0
-3.0546;-0.695;2.2725;1.3736;0.7746;-0.3894;2.0
-0.2794;1.3151;-0.4837;-0.2031;1.0529;0.0192;2.0
-3.2725;-0.8992;0.4799;0.0402;0.6492;-0.3731;2.0
-4.7718;-1.5909;-0.6643;-0.5136;1.2958;-0.7654;2.0
-0.0016;1.081;-0.3229;-0.2074;0.2971;-0.2587;2.0
-3.2949;-0.35;1.3991;-0.9635;1.3197;-0.5039;2.0
0.802;0.258;-1.0331;-1.0797;0.7283;0.1499;2.0
0.1787;-0.3066;-1.2214;0.4721;-0.2673;0.0682;2.0
1.2969;-0.4707;1.0274;0.3933;1.3853;-0.749;2.0
5.8747;2.5065;-0.6926;-0.3182;3.2349;-1.0105;2.0
-0.472;1.5127;-0.5468;2.1462;0.9541;0.1336;2.0
-0.5003;2.3528;-2.5901;-0.2398;3.6604;-0.9615;2.0
0.8951;-1.5851;0.6155;-0.1421;-0.7073;-1.0759;2.0
0.3819;-1.3445;0.813;-0.5093;-0.5736;-0.7163;2.0
0.3387;0.1799;-0.1111;-0.3871;0.0833;-1.4355;2.0
0.0313;-1.0285;-3.6817;-1.1864;1.21;-1.0105;2.0
0.3361;0.4745;-1.9121;0.282;0.5681;-0.8308;2.0
-3.8942;-0.6121;2.3418;0.1373;1.5808;-1.0432;2.0
0.142;-0.0271;0.922;-0.0263;0.1067;-0.2097;2.0
0.4431;0.4489;0.0607;-0.12;0.2612;-0.0789;2.0
-0.7595;2.0358;-1.2828;2.0941;2.992;-0.9288;2.0
-3.3383;-0.6172;2.3674;0.4122;1.2589;-0.9452;2.0
0.1399;0.1228;0.9659;0.6121;0.3392;-0.0626;2.0
0.3213;0.8149;-3.5312;-0.2027;1.9127;0.2316;2.0
0.3088;-0.0785;1.0735;-0.2357;0.1707;-0.1606;2.0
-3.6282;-0.3257;2.5444;-1.1042;1.1091;-0.4875;2.0
1.5164;-1.0809;0.3153;-0.0981;0.8287;0.1663;2.0
1.3375;-0.5056;0.6666;-1.3086;1.7853;-0.7817;2.0
0.4457;-0.9126;0.149;-0.389;1.3801;-0.8471;2.0
1.1345;-0.3479;0.8087;0.6407;1.4846;-0.749;2.0
-3.5446;-0.774;0.6989;0.7749;0.9145;-0.4385;2.0
0.0553;0.0447;0.9204;1.2422;0.2898;-0.1933;2.0
0.2143;0.2661;-3.209;0.0042;1.6027;0.1172;2.0
-1.6286;-1.1222;0.7552;-0.3435;-0.2324;-0.8144;2.0
-0.4405;1.0726;-0.8956;-0.1973;0.6274;0.7874;2.0
0.2846;0.2101;-2.5696;-1.3058;0.9936;-0.177;2.0
0.3714;0.1391;1.1606;-0.6794;0.332;-0.5202;2.0
-0.3553;-0.0043;-2.377;1.9244;0.8485;-1.4192;2.0
-3.6437;-0.4406;2.5543;0.4843;1.573;-0.7817;2.0
1.3999;-0.2629;0.9556;0.7749;1.6927;-0.7817;2.0
0.6215;-0.6806;0.4435;-0.3343;1.6209;-0.5692;2.0
-0.0515;-0.1045;1.0231;-0.3375;0.4199;-0.6673;2.0
0.1167;0.9889;-1.3434;-0.6227;0.7595;-0.7981;2.0
0.3641;1.1802;-1.548;-1.0743;1.2953;-1.5826;2.0
0.0311;0.2895;-0.3355;-0.4807;-0.2366;0.4441;2.0
1.146;-1.2859;1.4945;-0.2054;-0.0753;0.3624;2.0
1.0095;-1.3716;0.5873;-0.7056;-0.5414;-0.6673;2.0
0.1906;0.0775;1.2574;1.0895;0.5213;-0.4548;2.0
2.2924;-0.2628;0.5315;0.6943;1.7556;-0.749;2.0
0.4397;3.097;-1.704;1.7346;3.5824;-0.8961;2.0
0.1373;-0.0012;0.9369;-0.9377;0.2539;-0.2914;2.0
1.2407;-0.2995;0.8938;-0.2989;1.752;-1.4682;2.0
0.1581;0.6817;-2.2363;0.2427;0.8844;-0.9125;2.0
0.1224;0.9714;-1.7357;0.1661;0.8053;-0.7;2.0
1.6679;0.1478;1.2104;-0.0188;1.9319;-0.8961;2.0
0.222;0.0936;1.1372;0.8094;0.0069;1.1469;2.0
-4.1558;-0.5522;2.378;-1.512;1.2937;0.1172;2.0
0.2872;0.351;-3.39;-0.3519;1.9569;0.4932;2.0
-0.71;-0.7824;-0.6688;-0.3699;0.1213;-0.0789;2.0
-2.8451;-0.721;1.9615;0.7938;0.9385;-1.3047;2.0
-0.687;2.4125;-2.9855;-0.5413;3.7077;-0.8634;2.0
0.4752;0.4663;-2.7663;0.9922;1.5564;0.3297;2.0
0.1262;-1.324;-2.0845;-0.3734;-0.027;0.4768;2.0
0.1355;-0.7085;-0.5816;-0.8357;-0.1986;0.0519;2.0
1.1856;-1.3281;0.801;-0.2989;-0.467;-0.6346;2.0
1.7578;-0.7469;0.6755;-0.1844;-0.0275;-0.1116;2.0
0.2767;0.5734;-3.2393;0.7034;1.7749;0.5422;2.0
1.2668;-1.2751;0.7428;-0.546;-0.453;-1.1576;2.0
0.0466;1.2362;-0.3629;1.324;0.8433;1.1633;2.0
-0.1259;-0.2897;1.0024;1.4094;0.1317;0.1499;2.0
0.8826;0.0178;-0.6532;-0.2342;-0.3401;0.0192;2.0
-1.1471;-0.4614;2.5431;-1.2343;0.3268;-0.4385;2.0
0.0945;2.1497;-0.3188;-0.3884;1.0061;0.5422;2.0
1.042;-0.7461;0.9186;1.6079;0.6113;-0.0135;2.0
0.3573;-0.1658;-3.3335;-0.3373;1.8045;-0.9288;2.0
0.2462;1.0458;-1.7398;0.3692;0.8526;-0.7981;2.0
-0.8461;1.9995;-1.6798;-0.9609;3.4024;-0.9779;2.0
0.264;-0.0445;1.068;0.3793;0.2789;-0.6019;2.0
0.8818;2.1806;-1.5283;-0.3278;1.7332;0.3134;2.0
1.2563;-0.9959;1.5694;0.2664;0.5551;-0.4058;2.0
1.3498;-0.6434;0.7506;0.8032;1.4747;-0.8144;2.0
-0.4603;1.3674;-0.8112;-0.3246;0.9437;0.722;2.0
0.0705;0.0051;0.814;0.2339;0.1702;0.248;2.0
-0.5189;2.2771;-3.4773;-0.3736;4.1946;-0.8798;2.0
0.9372;-1.4423;1.3296;-0.158;-0.1154;0.3624;2.0
1.8721;-0.0011;1.2448;-0.2428;1.8804;-0.6673;2.0
-0.097;1.7865;-0.5759;1.6502;1.0851;0.5259;2.0
-3.6223;0.0192;1.1789;-0.9835;1.6542;-0.4548;2.0
1.263;-0.2815;0.996;0.5807;1.4638;-0.8144;2.0
1.0723;-1.4236;1.3562;0.8943;-0.5731;-0.5692;2.0
-0.1071;1.4345;-0.3936;-0.5716;0.8594;0.5095;2.0
2.1836;-0.5488;0.7284;0.8447;1.6292;-0.7;2.0
0.8943;-0.708;0.5057;0.3619;1.1933;-0.7654;2.0
0.1999;0.0372;0.9605;0.0377;0.3085;-0.4875;2.0
-0.3008;2.3715;-2.8263;-0.3186;3.7176;-0.8798;2.0
1.3349;-1.203;0.0884;0.0151;0.6149;-0.2914;2.0
0.0499;1.3627;-0.4229;0.9926;0.8516;0.2643;2.0
-0.0634;2.6282;-0.7921;-0.3182;3.4825;-0.9615;2.0
1.9818;0.1406;1.403;-1.58;2.0682;-0.7981;2.0
-0.6425;-0.3362;-2.3866;0.7351;0.6212;-0.8634;2.0
3.1991;0.3198;0.5132;1.6631;1.7879;0.3297;2.0
0.2244;-0.0561;1.1496;-0.0807;0.3548;-0.7654;2.0
-0.2024;-0.4994;-0.8824;-0.2123;-0.2959;0.5095;2.0
0.2728;1.4934;-1.521;-0.3171;2.0974;-0.8144;2.0
-3.6886;-0.5262;0.7819;0.7034;1.1548;-0.3077;2.0
